# dimensionless total [l(l+1)/2pi] C_l's
# for l=2 to 3000, i.e. number of multipoles equal to 2999
#
# -> if you prefer output in CAMB/HealPix/LensPix units/order, set 'format' to 'camb' in input file
# -> if you don't want to see such a header, set 'headers' to 'no' in input file
# -> for CMB lensing (phi), these are C_l^phi-phi for the lensing potential.
#    Remember the conversion factors:
#    C_l^dd (deflection) = l(l+1) C_l^phi-phi
#    C_l^gg (shear/convergence) = 1/4 (l(l+1))^2 C_l^phi-phi
#
# 1:l     2:TT                     3:EE                     4:TE                     5:BB                     6:phiphi                 7:TPhi                   8:Ephi               
    2       7.956020546402e-09       2.406884303758e-13       2.026703307314e-11       0.000000000000e+00       4.744054018623e-07       2.611678985517e-08      -1.060877480222e-10 
    3       7.524243029587e-09       3.083492082798e-13       2.277499778839e-11       0.000000000000e+00       2.918320862505e-07       1.852604238163e-08      -8.032722196857e-11 
    4       7.117206675889e-09       2.665821060884e-13       2.129581058767e-11       0.000000000000e+00       2.029453527892e-07       1.403294099507e-08      -5.256273438405e-11 
    5       6.812440346612e-09       1.777361169787e-13       1.813272059232e-11       0.000000000000e+00       1.515514673905e-07       1.108695936835e-08      -2.919458959648e-11 
    6       6.603427313866e-09       9.932388680824e-14       1.460208436570e-11       0.000000000000e+00       1.184413281269e-07       9.022190698189e-09      -1.198596626141e-11 
    7       6.467204520819e-09       5.365199511982e-14       1.146391919526e-11       0.000000000000e+00       9.560644979199e-08       7.506493288173e-09      -1.017780685988e-12 
    8       6.387660106751e-09       3.461894130600e-14       9.050432628002e-12       0.000000000000e+00       7.905822054631e-08       6.356730747319e-09       4.572332935730e-12 
    9       6.350500792012e-09       2.778380983638e-14       7.435005562039e-12       0.000000000000e+00       6.659926393266e-08       5.464553942001e-09       6.129330453049e-12 
   10       6.342448595165e-09       2.365614993285e-14       6.541154745674e-12       0.000000000000e+00       5.693717031221e-08       4.757933696551e-09       5.141914924005e-12 
   11       6.360111865903e-09       1.984919679319e-14       6.215660959573e-12       0.000000000000e+00       4.798800558403e-08       4.204006642966e-09       2.997348385622e-12 
   12       6.394768156991e-09       1.726359577274e-14       6.282373406858e-12       0.000000000000e+00       4.194004611591e-08       3.717292978643e-09       7.079755890374e-13 
   13       6.443509550471e-09       1.653321407859e-14       6.586791840706e-12       0.000000000000e+00       3.697407638321e-08       3.322072664899e-09      -1.035279725665e-12 
   14       6.503616433366e-09       1.719944751835e-14       7.012537675428e-12       0.000000000000e+00       3.284157003537e-08       2.977931331582e-09      -1.987109727153e-12 
   15       6.574316469124e-09       1.858594962194e-14       7.485375004228e-12       0.000000000000e+00       2.936235799181e-08       2.688470400285e-09      -2.159355249445e-12 
   16       6.651271749796e-09       2.054688905893e-14       7.967138785019e-12       0.000000000000e+00       2.640364887877e-08       2.438949594782e-09      -1.780070432643e-12 
   17       6.736086244651e-09       2.340084478295e-14       8.445053773627e-12       0.000000000000e+00       2.386510873664e-08       2.221162470746e-09      -1.148455619189e-12 
   18       6.825107351143e-09       2.746043978279e-14       8.934132217822e-12       0.000000000000e+00       2.166140423011e-08       2.031205828110e-09      -5.458696909388e-13 
   19       6.918981915529e-09       3.274462853514e-14       9.447223980590e-12       0.000000000000e+00       1.975771519653e-08       1.866355482657e-09      -1.221186189900e-13 
   20       7.017299409808e-09       3.913839106408e-14       9.992395500514e-12       0.000000000000e+00       1.808076381173e-08       1.719960401334e-09       2.439471989532e-14 
   21       7.120146483534e-09       4.660468631932e-14       1.056688715194e-11       0.000000000000e+00       1.660429199034e-08       1.589392760813e-09      -7.388461758197e-14 
   22       7.226021745774e-09       5.511517449360e-14       1.115989258059e-11       0.000000000000e+00       1.529306252726e-08       1.471424220855e-09      -3.165520485168e-13 
   23       7.335205418745e-09       6.468141778285e-14       1.175256593880e-11       0.000000000000e+00       1.412910851808e-08       1.365580013980e-09      -6.029276479159e-13 
   24       7.447331064688e-09       7.531682433529e-14       1.232103581816e-11       0.000000000000e+00       1.308558209809e-08       1.270918206180e-09      -8.256135888078e-13 
   25       7.562511203988e-09       8.702606165495e-14       1.284872051699e-11       0.000000000000e+00       1.215024804613e-08       1.186237055505e-09      -9.366715026345e-13 
   26       7.680098303938e-09       9.982461079862e-14       1.332141406660e-11       0.000000000000e+00       1.130621416695e-08       1.109423807373e-09      -9.169252416048e-13 
   27       7.799802535910e-09       1.138287422285e-13       1.373240357375e-11       0.000000000000e+00       1.054338194604e-08       1.039485970422e-09      -8.022075536383e-13 
   28       7.920947856723e-09       1.291846932333e-13       1.407910868850e-11       0.000000000000e+00       9.848626783203e-09       9.753413756447e-10      -6.508408140819e-13 
   29       8.044061882809e-09       1.459734591639e-13       1.436559246586e-11       0.000000000000e+00       9.218420047347e-09       9.168792117459e-10      -5.009125116677e-13 
   30       8.169401536859e-09       1.642544672917e-13       1.460029281779e-11       0.000000000000e+00       8.646015569522e-09       8.637688434760e-10      -3.909640427988e-13 
   31       8.296621017081e-09       1.840851752080e-13       1.479176548815e-11       0.000000000000e+00       8.119762319894e-09       8.151788452165e-10      -3.565377531610e-13 
   32       8.425893973702e-09       2.055266753934e-13       1.493672151952e-11       0.000000000000e+00       7.636954203678e-09       7.706211668495e-10      -3.870469009424e-13 
   33       8.557057602315e-09       2.286397183458e-13       1.502743634177e-11       0.000000000000e+00       7.194186092386e-09       7.293225652842e-10      -4.519839153998e-13 
   34       8.689551632787e-09       2.534801467542e-13       1.505532338335e-11       0.000000000000e+00       6.785273019376e-09       6.903182765664e-10      -5.173555857648e-13 
   35       8.823502368088e-09       2.800889084589e-13       1.501305050561e-11       0.000000000000e+00       6.408129808099e-09       6.537204219727e-10      -5.666749814626e-13 
   36       8.958918141987e-09       3.084977888727e-13       1.489303031151e-11       0.000000000000e+00       6.059739007521e-09       6.198497441846e-10      -5.868164302931e-13 
   37       9.095561663957e-09       3.387368856216e-13       1.468836310995e-11       0.000000000000e+00       5.735576048273e-09       5.888554206410e-10      -5.672585201758e-13 
   38       9.233665394387e-09       3.708530084906e-13       1.439820315020e-11       0.000000000000e+00       5.434808739346e-09       5.606130960154e-10      -5.169443834441e-13 
   39       9.373386525586e-09       4.048969883214e-13       1.402420501408e-11       0.000000000000e+00       5.156487684534e-09       5.347625773931e-10      -4.532131805813e-13 
   40       9.514573642415e-09       4.409186743359e-13       1.356917577280e-11       0.000000000000e+00       4.897964530983e-09       5.107109926214e-10      -3.976380246700e-13 
   41       9.656926479245e-09       4.789647390514e-13       1.303589890164e-11       0.000000000000e+00       4.655815718139e-09       4.878133279879e-10      -3.703387058636e-13 
   42       9.800616350687e-09       5.190713801078e-13       1.242297939170e-11       0.000000000000e+00       4.429331729541e-09       4.660300145390e-10      -3.700364801816e-13 
   43       9.945812649995e-09       5.612691400704e-13       1.172776243281e-11       0.000000000000e+00       4.217914210314e-09       4.454516977291e-10      -3.879662594955e-13 
   44       1.009248870649e-08       6.055846316487e-13       1.094744570870e-11       0.000000000000e+00       4.020028841494e-09       4.261132960406e-10      -4.131425897940e-13 
   45       1.024051331783e-08       6.520420892978e-13       1.007923340575e-11       0.000000000000e+00       3.833754066924e-09       4.080016162854e-10      -4.348334772070e-13 
   46       1.039000392677e-08       7.006690677708e-13       9.120892328935e-12       0.000000000000e+00       3.658798519772e-09       3.910930047662e-10      -4.511862893451e-13 
   47       1.054104586278e-08       7.514920930752e-13       8.070333757207e-12       0.000000000000e+00       3.494959954922e-09       3.753182249231e-10      -4.629478695653e-13 
   48       1.069357771397e-08       8.045349465213e-13       6.925450615564e-12       0.000000000000e+00       3.341516727311e-09       3.605464061494e-10      -4.710908910180e-13 
   49       1.084737822310e-08       8.598185578838e-13       5.684110673885e-12       0.000000000000e+00       3.197189159454e-09       3.465806472121e-10      -4.768273572279e-13 
   50       1.100219124111e-08       9.173599227793e-13       4.344246001121e-12       0.000000000000e+00       3.060525250576e-09       3.332142926884e-10      -4.814844656233e-13 
   51       1.115817097459e-08       9.771687562274e-13       2.904165731823e-12       0.000000000000e+00       2.931270858247e-09       3.204279708000e-10      -4.860611531090e-13 
   52       1.131553494460e-08       1.039249746059e-12       1.362316440363e-12       0.000000000000e+00       2.809304658469e-09       3.082384395144e-10      -4.915745163831e-13 
   53       1.147443004161e-08       1.103603300175e-12      -2.828089119247e-13       0.000000000000e+00       2.694228089493e-09       2.966410832304e-10      -4.991937854184e-13 
   54       1.163492591830e-08       1.170225393790e-12      -2.032673248219e-12       0.000000000000e+00       2.585346688362e-09       2.856083713997e-10      -5.102473470051e-13 
   55       1.179704585040e-08       1.239110079030e-12      -3.888493751550e-12       0.000000000000e+00       2.481882126265e-09       2.751032710570e-10      -5.257685048794e-13 
   56       1.196088343334e-08       1.310258093774e-12      -5.850573132603e-12       0.000000000000e+00       2.383712753873e-09       2.651269173977e-10      -5.449845273021e-13 
   57       1.212650330250e-08       1.383670123863e-12      -7.918806213153e-12       0.000000000000e+00       2.290784332852e-09       2.556800857492e-10      -5.664645487483e-13 
   58       1.229390116978e-08       1.459344280156e-12      -1.009286371807e-11       0.000000000000e+00       2.202885990547e-09       2.467483373281e-10      -5.885372376974e-13 
   59       1.246299867618e-08       1.537276049496e-12      -1.237218660279e-11       0.000000000000e+00       2.119640544797e-09       2.383010604813e-10      -6.092798488742e-13 
   60       1.263363824436e-08       1.617458245683e-12      -1.475598038078e-11       0.000000000000e+00       2.040494828739e-09       2.302905119268e-10      -6.265072754899e-13 
   61       1.280565596641e-08       1.699876748667e-12      -1.724334676418e-11       0.000000000000e+00       1.964873380053e-09       2.226651013454e-10      -6.382729169152e-13 
   62       1.297913102990e-08       1.784496715475e-12      -1.983372594717e-11       0.000000000000e+00       1.892701708764e-09       2.154148986339e-10      -6.445274238879e-13 
   63       1.315418339880e-08       1.871273173086e-12      -2.252654398368e-11       0.000000000000e+00       1.823983848241e-09       2.085346863948e-10      -6.458145439146e-13 
   64       1.333089810024e-08       1.960154778045e-12      -2.532108294480e-11       0.000000000000e+00       1.758644952259e-09       2.020101211509e-10      -6.427973472871e-13 
   65       1.350932255305e-08       2.051083633791e-12      -2.821647960312e-11       0.000000000000e+00       1.696526803230e-09       1.958172265171e-10      -6.362635188405e-13 
   66       1.368946389639e-08       2.143995107999e-12      -3.121172411707e-11       0.000000000000e+00       1.637383320451e-09       1.899218863716e-10      -6.271306497107e-13 
   67       1.387128631832e-08       2.238817649905e-12      -3.430565871520e-11       0.000000000000e+00       1.580876068337e-09       1.842793380284e-10      -6.164515290918e-13 
   68       1.405474595648e-08       2.335479989856e-12      -3.749703520823e-11       0.000000000000e+00       1.526664682844e-09       1.788456564991e-10      -6.052185580568e-13 
   69       1.423990978339e-08       2.433934840262e-12      -4.078470399844e-11       0.000000000000e+00       1.474709467948e-09       1.736160423718e-10      -5.937191421062e-13 
   70       1.442685612210e-08       2.534139690994e-12      -4.416746118095e-11       0.000000000000e+00       1.425022325701e-09       1.685934172220e-10      -5.820585903982e-13 
   71       1.461563752569e-08       2.636049858122e-12      -4.764399329013e-11       0.000000000000e+00       1.377575235905e-09       1.637769223955e-10      -5.703495884283e-13 
   72       1.480627906675e-08       2.739618490050e-12      -5.121287748839e-11       0.000000000000e+00       1.332298191932e-09       1.591617188571e-10      -5.587123522435e-13 
   73       1.499877662696e-08       2.844796573651e-12      -5.487258175510e-11       0.000000000000e+00       1.289077136531e-09       1.547387870402e-10      -5.472747826572e-13 
   74       1.519309518654e-08       2.951532940412e-12      -5.862146507542e-11       0.000000000000e+00       1.247751897650e-09       1.504947266959e-10      -5.361726194630e-13 
   75       1.538916711381e-08       3.059774272562e-12      -6.245777762917e-11       0.000000000000e+00       1.208114124243e-09       1.464115567420e-10      -5.255495956498e-13 
   76       1.558692586694e-08       3.169461639308e-12      -6.637964504427e-11       0.000000000000e+00       1.169959022716e-09       1.424714585879e-10      -5.155380183537e-13 
   77       1.578641797551e-08       3.280519362744e-12      -7.038501742460e-11       0.000000000000e+00       1.133256021059e-09       1.386724471414e-10      -5.061960826012e-13 
   78       1.598770846665e-08       3.392864123302e-12      -7.447171132703e-11       0.000000000000e+00       1.098005620522e-09       1.350152071290e-10      -4.975593534920e-13 
   79       1.619084629583e-08       3.506408185576e-12      -7.863742473664e-11       0.000000000000e+00       1.064187410480e-09       1.314983059534e-10      -4.896590822068e-13 
   80       1.639586336264e-08       3.621059333301e-12      -8.287973692871e-11       0.000000000000e+00       1.031759107470e-09       1.281180949133e-10      -4.825219588557e-13 
   81       1.660277352637e-08       3.736720804345e-12      -8.719610833088e-11       0.000000000000e+00       1.000655594235e-09       1.248686104219e-10      -4.761698653275e-13 
   82       1.681157162175e-08       3.853291225685e-12      -9.158388038523e-11       0.000000000000e+00       9.707879587617e-10       1.217414752268e-10      -4.706196281381e-13 
   83       1.702223247457e-08       3.970664548396e-12      -9.604027541035e-11       0.000000000000e+00       9.420425333184e-10       1.187257996285e-10      -4.658827712794e-13 
   84       1.723472731836e-08       4.088733980397e-12      -1.005624244255e-10       0.000000000000e+00       9.143085274206e-10       1.158108955812e-10      -4.619502175475e-13 
   85       1.744907832739e-08       4.207404676198e-12      -1.051474562247e-10       0.000000000000e+00       8.875682951013e-10       1.129951523433e-10      -4.587440198724e-13 
   86       1.766531136143e-08       4.326583041424e-12      -1.097924228854e-10       0.000000000000e+00       8.618203397450e-10       1.102784579533e-10      -4.561571377207e-13 
   87       1.788343868682e-08       4.446172924230e-12      -1.144942734458e-10       0.000000000000e+00       8.370515773611e-10       1.076594664255e-10      -4.540672844081e-13 
   88       1.810345828465e-08       4.566075617480e-12      -1.192498542375e-10       0.000000000000e+00       8.132368561940e-10       1.051355462449e-10      -4.523364269810e-13 
   89       1.832535315888e-08       4.686189860917e-12      -1.240559092172e-10       0.000000000000e+00       7.903384763327e-10       1.027027288613e-10      -4.508102860993e-13 
   90       1.854909064441e-08       4.806411843337e-12      -1.289090802989e-10       0.000000000000e+00       7.683057093206e-10       1.003556571842e-10      -4.493178359180e-13 
   91       1.877462171528e-08       4.926635204763e-12      -1.338059076859e-10       0.000000000000e+00       7.470743177656e-10       9.808753407669e-11      -4.476708039696e-13 
   92       1.900188029273e-08       5.046751038617e-12      -1.387428302026e-10       0.000000000000e+00       7.265660749498e-10       9.589007085046e-11      -4.456631710457e-13 
   93       1.923080337349e-08       5.166649514222e-12      -1.437162359003e-10       0.000000000000e+00       7.067073289837e-10       9.375551353296e-11      -4.431186060810e-13 
   94       1.946139638013e-08       5.286225018720e-12      -1.487226218569e-10       0.000000000000e+00       6.874889325304e-10       9.168318214730e-11      -4.400420179200e-13 
   95       1.969367640594e-08       5.405371796117e-12      -1.537584591365e-10       0.000000000000e+00       6.689144802628e-10       8.967382428832e-11      -4.364899783375e-13 
   96       1.992765186989e-08       5.523982419948e-12      -1.588201456663e-10       0.000000000000e+00       6.509818513997e-10       8.772760230585e-11      -4.325249737363e-13 
   97       2.016332211058e-08       5.641947817691e-12      -1.639040072586e-10       0.000000000000e+00       6.336829907366e-10       8.584407032040e-11      -4.282155630249e-13 
   98       2.040067698012e-08       5.759157295187e-12      -1.690062986332e-10       0.000000000000e+00       6.170036896773e-10       8.402215123893e-11      -4.236365354957e-13 
   99       2.063969643809e-08       5.875498561050e-12      -1.741232044390e-10       0.000000000000e+00       6.009233672647e-10       8.226011377054e-11      -4.188690687030e-13 
  100       2.088035014543e-08       5.990857751084e-12      -1.792508402766e-10       0.000000000000e+00       5.854148512123e-10       8.055554944217e-11      -4.140008863408e-13 
  101       2.112259705838e-08       6.105119452701e-12      -1.843852537204e-10       0.000000000000e+00       5.704441589350e-10       7.890534961437e-11      -4.091264161211e-13 
  102       2.136638502237e-08       6.218166729332e-12      -1.895224253404e-10       0.000000000000e+00       5.559702785806e-10       7.730568249699e-11      -4.043469476517e-13 
  103       2.161165036596e-08       6.329881144846e-12      -1.946582697248e-10       0.000000000000e+00       5.419449500612e-10       7.575197016490e-11      -3.997707903140e-13 
  104       2.185833135516e-08       6.440145725109e-12      -1.997886689087e-10       0.000000000000e+00       5.283236067612e-10       7.423996293469e-11      -3.954900326101e-13 
  105       2.210641150099e-08       6.548854245720e-12      -2.049095756028e-10       0.000000000000e+00       5.151003556297e-10       7.276917728813e-11      -3.915069046718e-13 
  106       2.235588137229e-08       6.655903250270e-12      -2.100169258802e-10       0.000000000000e+00       5.022773361665e-10       7.133988167477e-11      -3.877977164211e-13 
  107       2.260672500710e-08       6.761189281243e-12      -2.151066093760e-10       0.000000000000e+00       4.898538865446e-10       6.995202982883e-11      -3.843352697668e-13 
