# dimensionless total [l(l+1)/2pi] C_l's
# for l=2 to 3000, i.e. number of multipoles equal to 2999
#
# -> if you prefer output in CAMB/HealPix/LensPix units/order, set 'format' to 'camb' in input file
# -> if you don't want to see such a header, set 'headers' to 'no' in input file
# -> for CMB lensing (phi), these are C_l^phi-phi for the lensing potential.
#    Remember the conversion factors:
#    C_l^dd (deflection) = l(l+1) C_l^phi-phi
#    C_l^gg (shear/convergence) = 1/4 (l(l+1))^2 C_l^phi-phi
#
# 1:l     2:TT                     3:EE                     4:TE                     5:BB                     6:phiphi                 7:TPhi                   8:Ephi               
    2       3.871301121162e-10       1.251043310011e-14       1.151484534329e-12       0.000000000000e+00       1.694911661038e-08       8.590880445543e-10      -5.429996953091e-12 
    3       3.493217159589e-10       1.501817358557e-14       1.195715358742e-12       0.000000000000e+00       9.918433141956e-09       5.972982934116e-10      -3.860504362998e-12 
    4       3.177529629124e-10       1.244691250415e-14       1.058155634625e-12       0.000000000000e+00       6.662906712372e-09       4.431872318718e-10      -2.430420844027e-12 
    5       2.939965088305e-10       8.049098622485e-15       8.631634124780e-13       0.000000000000e+00       4.843558922362e-09       3.433696864298e-10      -1.321736596571e-12 
    6       2.765031532796e-10       4.384520760413e-15       6.704549780239e-13       0.000000000000e+00       3.702171586089e-09       2.744864080145e-10      -5.482464877466e-13 
    7       2.635393130041e-10       2.300029230936e-15       5.097680199759e-13       0.000000000000e+00       2.932053149205e-09       2.247172834592e-10      -7.426508818286e-14 
    8       2.539288023169e-10       1.428534521373e-15       3.906456145156e-13       0.000000000000e+00       2.384491970835e-09       1.875626378802e-10       1.608855631016e-13 
    9       2.467678537316e-10       1.107961260197e-15       3.119368153233e-13       0.000000000000e+00       1.979298279536e-09       1.591712390008e-10       2.267687418806e-13 
   10       2.413251445702e-10       9.215176061036e-16       2.671995555606e-13       0.000000000000e+00       1.669988204876e-09       1.369991391459e-10       1.906685078336e-13 
   11       2.373108603928e-10       7.588408146435e-16       2.479136140309e-13       0.000000000000e+00       1.403075881367e-09       1.210632593442e-10       1.107930123678e-13 
   12       2.343034743223e-10       6.479398670764e-16       2.455830645665e-13       0.000000000000e+00       1.213452938763e-09       1.059169984258e-10       2.567051222545e-14 
   13       2.320933321011e-10       6.104422165049e-16       2.532566544910e-13       0.000000000000e+00       1.059443648988e-09       9.386563510529e-11      -3.827651275732e-14 
   14       2.305372862878e-10       6.280523385187e-16       2.659468487649e-13       0.000000000000e+00       9.325728770916e-10       8.335962645015e-11      -7.285199578834e-14 
   15       2.295471614551e-10       6.744728229436e-16       2.805727501139e-13       0.000000000000e+00       8.267597807373e-10       7.464824705763e-11      -7.913568883487e-14 
   16       2.289597249236e-10       7.425859428285e-16       2.955782005939e-13       0.000000000000e+00       7.375695931678e-10       6.722731465070e-11      -6.582098149606e-14 
   17       2.287739204988e-10       8.419870036225e-16       3.104344170061e-13       0.000000000000e+00       6.616807497360e-10       6.081007106673e-11      -4.373878199305e-14 
   18       2.288542475740e-10       9.823664285352e-16       3.255942306166e-13       0.000000000000e+00       5.963151009651e-10       5.525613654467e-11      -2.274812938944e-14 
   19       2.292202852512e-10       1.163574399318e-15       3.414758498761e-13       0.000000000000e+00       5.402764377332e-10       5.047065978831e-11      -7.926121356129e-15 
   20       2.298235568426e-10       1.380796692950e-15       3.583238166220e-13       0.000000000000e+00       4.912555090299e-10       4.625135310468e-11      -2.502248728181e-15 
   21       2.306606860804e-10       1.631987211419e-15       3.760246329855e-13       0.000000000000e+00       4.483878415013e-10       4.251256728031e-11      -5.297803307301e-15 
   22       2.316686054185e-10       1.915413776681e-15       3.941867164163e-13       0.000000000000e+00       4.105603479361e-10       3.915123128918e-11      -1.285543795829e-14 
   23       2.328514891128e-10       2.230925303479e-15       4.121755641281e-13       0.000000000000e+00       3.771920905415e-10       3.615064435504e-11      -2.185697206799e-14 
   24       2.341846654891e-10       2.578521138769e-15       4.291968220822e-13       0.000000000000e+00       3.474510938115e-10       3.348299053178e-11      -2.881654858198e-14 
   25       2.356694333206e-10       2.957943849636e-15       4.447303360908e-13       0.000000000000e+00       3.209467205875e-10       3.111182150326e-11      -3.221777900516e-14 
   26       2.372783286630e-10       3.369284206536e-15       4.583465177280e-13       0.000000000000e+00       2.971595992554e-10       2.897426919933e-11      -3.148278760143e-14 
   27       2.389995140220e-10       3.815822381353e-15       4.698695010314e-13       0.000000000000e+00       2.757752306812e-10       2.703997766363e-11      -2.776095006184e-14 
   28       2.408051898216e-10       4.301785551296e-15       4.792584190324e-13       0.000000000000e+00       2.563959397735e-10       2.527616520646e-11      -2.290399109670e-14 
   29       2.427120613498e-10       4.829317117775e-15       4.866713250017e-13       0.000000000000e+00       2.389053867479e-10       2.367755568137e-11      -1.809574466330e-14 
   30       2.447240068891e-10       5.399874286500e-15       4.923993471715e-13       0.000000000000e+00       2.230981666067e-10       2.223255050156e-11      -1.451919648556e-14 
   31       2.468208249970e-10       6.014836270835e-15       4.967359340006e-13       0.000000000000e+00       2.086302093436e-10       2.091555023470e-11      -1.326453517423e-14 
   32       2.490078221158e-10       6.675614016915e-15       4.996043358665e-13       0.000000000000e+00       1.954155063871e-10       1.971196239931e-11      -1.400811002420e-14 
   33       2.512788959455e-10       7.383567849436e-15       5.007873671884e-13       0.000000000000e+00       1.833505365716e-10       1.859978383428e-11      -1.581493812639e-14 
   34       2.536123523033e-10       8.139903012493e-15       5.000401525806e-13       0.000000000000e+00       1.722542800400e-10       1.755187722062e-11      -1.764467094259e-14 
   35       2.560117852990e-10       8.945431088694e-15       4.971630832835e-13       0.000000000000e+00       1.620625684405e-10       1.657139876860e-11      -1.900395541244e-14 
   36       2.584757295755e-10       9.800704233692e-15       4.919495294273e-13       0.000000000000e+00       1.526862769231e-10       1.566759583002e-11      -1.950718414443e-14 
   37       2.609931763572e-10       1.070621892094e-14       4.842122546425e-13       0.000000000000e+00       1.439947928325e-10       1.484496054134e-11      -1.884480039543e-14 
   38       2.635716992285e-10       1.166294737082e-14       4.739479866489e-13       0.000000000000e+00       1.359612009505e-10       1.409950290573e-11      -1.727855251392e-14 
   39       2.662161557497e-10       1.267197268305e-14       4.612277869075e-13       0.000000000000e+00       1.285560992043e-10       1.342041659009e-11      -1.531628918436e-14 
   40       2.689196110462e-10       1.373434561183e-14       4.461552267111e-13       0.000000000000e+00       1.217035748947e-10       1.279041117162e-11      -1.358964390062e-14 
   41       2.716693794623e-10       1.485102287533e-14       4.288324369252e-13       0.000000000000e+00       1.153067197781e-10       1.219088763631e-11      -1.268787779192e-14 
   42       2.744704219747e-10       1.602265977811e-14       4.092407872920e-13       0.000000000000e+00       1.093438450187e-10       1.162073954521e-11      -1.257517359761e-14 
   43       2.773275300036e-10       1.724974878683e-14       3.873242894108e-13       0.000000000000e+00       1.037968097120e-10       1.108279820543e-11      -1.299708135985e-14 
   44       2.802380339984e-10       1.853266975947e-14       3.630212298915e-13       0.000000000000e+00       9.862222279911e-11       1.057854063671e-11      -1.363436306355e-14 
   45       2.831954739878e-10       1.987173228530e-14       3.362693049181e-13       0.000000000000e+00       9.376635506781e-11       1.010812494071e-11      -1.417493442339e-14 
   46       2.862035968373e-10       2.126732950762e-14       3.070245526032e-13       0.000000000000e+00       8.921989353036e-11       9.670809992031e-12      -1.456476483302e-14 
   47       2.892653330550e-10       2.271982183660e-14       2.752468548453e-13       0.000000000000e+00       8.497616219980e-11       9.264443960853e-12      -1.482518179970e-14 
   48       2.923783305058e-10       2.422949144768e-14       2.408942000475e-13       0.000000000000e+00       8.101464065111e-11       8.885196859444e-12      -1.498380426952e-14 
   49       2.955344951263e-10       2.579654003771e-14       2.039222996964e-13       0.000000000000e+00       7.729994233980e-11       8.527442214268e-12      -1.507491583017e-14 
   50       2.987242960374e-10       2.742106089476e-14       1.642885677398e-13       0.000000000000e+00       7.379217770816e-11       8.185328812095e-12      -1.513595567664e-14 
   51       3.019521240640e-10       2.910295137533e-14       1.219662216584e-13       0.000000000000e+00       7.048372999904e-11       7.858273417713e-12      -1.519500278689e-14 
   52       3.052243082085e-10       3.084197279144e-14       7.693334620384e-14       0.000000000000e+00       6.737069578203e-11       7.546754455363e-12      -1.528053957100e-14 
   53       3.085444861143e-10       3.263777065005e-14       2.916869124479e-14       0.000000000000e+00       6.444189823439e-11       7.250714369062e-12      -1.542522317325e-14 
   54       3.119133689866e-10       3.448987120045e-14      -2.134850634588e-14       0.000000000000e+00       6.167840121429e-11       6.969520827619e-12      -1.566607598141e-14 
   55       3.153301137910e-10       3.639775089631e-14      -7.463306762591e-14       0.000000000000e+00       5.905910893025e-11       6.702289522401e-12      -1.603185328784e-14 
   56       3.187973775771e-10       3.836107289874e-14      -1.306755114191e-13       0.000000000000e+00       5.658030715785e-11       6.449035341214e-12      -1.650103497138e-14 
   57       3.223171069982e-10       4.037950327820e-14      -1.894561653996e-13       0.000000000000e+00       5.424012534198e-11       6.209739218270e-12      -1.703373173933e-14 
   58       3.258888723384e-10       4.245264264888e-14      -2.509503591971e-13       0.000000000000e+00       5.203263290894e-11       5.983987427747e-12      -1.758329130222e-14 
   59       3.295096950553e-10       4.458002555699e-14      -3.151283830351e-13       0.000000000000e+00       4.994759044088e-11       5.770946876834e-12      -1.809598929154e-14 
   60       3.331738753218e-10       4.676111986896e-14      -3.819554463693e-13       0.000000000000e+00       4.797020085023e-11       5.569340398784e-12      -1.851072017754e-14 
   61       3.368754489024e-10       4.899521995325e-14      -4.513944640818e-13       0.000000000000e+00       4.608512068752e-11       5.377792790951e-12      -1.877310937128e-14 
   62       3.406165923575e-10       5.128109959171e-14      -5.234152394393e-13       0.000000000000e+00       4.429010912778e-11       5.196015587413e-12      -1.888225030091e-14 
   63       3.444008070341e-10       5.361727972032e-14      -5.979872783322e-13       0.000000000000e+00       4.258501504296e-11       5.023845588624e-12      -1.885395724464e-14 
   64       3.482303689458e-10       5.600212385815e-14      -6.750771910015e-13       0.000000000000e+00       4.096767580823e-11       4.860884895903e-12      -1.870741541026e-14 
   65       3.521062397411e-10       5.843383412578e-14      -7.546487403940e-13       0.000000000000e+00       3.943380364732e-11       4.706487967936e-12      -1.846532942623e-14 
   66       3.560279776734e-10       6.091044726368e-14      -8.366628905164e-13       0.000000000000e+00       3.797687197772e-11       4.559748677291e-12      -1.815407183270e-14 
   67       3.599936485694e-10       6.342983065058e-14      -9.210778547905e-13       0.000000000000e+00       3.658800175595e-11       4.419487366916e-12      -1.780383157258e-14 
   68       3.640010675637e-10       6.598986799454e-14      -1.007849801971e-12       0.000000000000e+00       3.525828043469e-11       4.284549568473e-12      -1.744295258608e-14 
   69       3.680520154843e-10       6.858906899821e-14      -1.096935031914e-12       0.000000000000e+00       3.398651852300e-11       4.154801376483e-12      -1.707928557775e-14 
   70       3.721487208044e-10       7.122607664265e-14      -1.188288329565e-12       0.000000000000e+00       3.277286775644e-11       4.030313437620e-12      -1.671530702091e-14 
   71       3.762925504596e-10       7.389948929869e-14      -1.281862410414e-12       0.000000000000e+00       3.161647702957e-11       3.911062250796e-12      -1.635359462546e-14 
   72       3.804839548521e-10       7.660786159628e-14      -1.377607985662e-12       0.000000000000e+00       3.051544095642e-11       3.796925194556e-12      -1.599682723820e-14 
   73       3.847224128548e-10       7.934970529385e-14      -1.475473827396e-12       0.000000000000e+00       2.946674843081e-11       3.687675554478e-12      -1.564778474321e-14 
   74       3.890063768149e-10       8.212349014766e-14      -1.575406833761e-12       0.000000000000e+00       2.846623118678e-11       3.582977550568e-12      -1.530934796218e-14 
   75       3.933332175586e-10       8.492764478116e-14      -1.677352094129e-12       0.000000000000e+00       2.750851235898e-11       3.482381364658e-12      -1.498449855478e-14 
   76       3.977003395996e-10       8.776046571854e-14      -1.781251983331e-12       0.000000000000e+00       2.658831432483e-11       3.385439914453e-12      -1.467600257829e-14 
   77       4.021088831173e-10       9.061982341289e-14      -1.887043109566e-12       0.000000000000e+00       2.570477127493e-11       3.292094751744e-12      -1.438539476784e-14 
   78       4.065606002721e-10       9.350340394127e-14      -1.994658925750e-12       0.000000000000e+00       2.485781325899e-11       3.202351827321e-12      -1.411380799322e-14 
   79       4.110567143905e-10       9.640879508734e-14      -2.104030695610e-12       0.000000000000e+00       2.404685348509e-11       3.116163551131e-12      -1.386226668791e-14 
   80       4.155978889649e-10       9.933348532754e-14      -2.215087538950e-12       0.000000000000e+00       2.327076475327e-11       3.033426316186e-12      -1.363168026261e-14 
   81       4.201841966539e-10       1.022748628173e-13      -2.327756476914e-12       0.000000000000e+00       2.252785588905e-11       2.953978022476e-12      -1.342283651876e-14 
   82       4.248150882821e-10       1.052302143773e-13      -2.441962477244e-12       0.000000000000e+00       2.181584817703e-11       2.877595600879e-12      -1.323639506210e-14 
   83       4.294893618404e-10       1.081967244795e-13      -2.557628499548e-12       0.000000000000e+00       2.113185179446e-11       2.803992537075e-12      -1.307288071617e-14 
   84       4.342057258331e-10       1.111715734019e-13      -2.674675581719e-12       0.000000000000e+00       2.047305302398e-11       2.732888884621e-12      -1.293222925308e-14 
   85       4.389646645307e-10       1.141522526098e-13      -2.793023016524e-12       0.000000000000e+00       1.983895841138e-11       2.664240063832e-12      -1.281235248594e-14 
   86       4.437668265370e-10       1.171363000421e-13      -2.912588287413e-12       0.000000000000e+00       1.922948116353e-11       2.598041629479e-12      -1.271032211717e-14 
   87       4.486124372345e-10       1.201212062353e-13      -3.033287075237e-12       0.000000000000e+00       1.864425199797e-11       2.534258914788e-12      -1.262278236869e-14 
   88       4.535012777723e-10       1.231044149758e-13      -3.155033304200e-12       0.000000000000e+00       1.808260752237e-11       2.472825773653e-12      -1.254593587136e-14 
   89       4.584326640561e-10       1.260833239529e-13      -3.277739187819e-12       0.000000000000e+00       1.754357861387e-11       2.413643322856e-12      -1.247552955442e-14 
   90       4.634054257368e-10       1.290552854118e-13      -3.401315274869e-12       0.000000000000e+00       1.702587879862e-11       2.356578684283e-12      -1.240684053498e-14 
   91       4.684178851996e-10       1.320176068067e-13      -3.525670495344e-12       0.000000000000e+00       1.652789263115e-11       2.301463727138e-12      -1.233466200741e-14 
   92       4.734678365532e-10       1.349675514531e-13      -3.650712206408e-12       0.000000000000e+00       1.604766407384e-11       2.248093810164e-12      -1.225328913283e-14 
   93       4.785531821144e-10       1.379023722641e-13      -3.776346888571e-12       0.000000000000e+00       1.558335188390e-11       2.196277671990e-12      -1.215783466613e-14 
   94       4.836739970014e-10       1.408194173432e-13      -3.902482254168e-12       0.000000000000e+00       1.513469936104e-11       2.145998417440e-12      -1.204843283029e-14 
   95       4.888307376532e-10       1.437160415536e-13      -4.029025542434e-12       0.000000000000e+00       1.470176519323e-11       2.097274530723e-12      -1.192664455800e-14 
   96       4.940236001766e-10       1.465895759422e-13      -4.155882951686e-12       0.000000000000e+00       1.428447100498e-11       2.050110336432e-12      -1.179418817698e-14 
   97       4.992525083604e-10       1.494373288473e-13      -4.282959694198e-12       0.000000000000e+00       1.388259614724e-11       2.004495443860e-12      -1.165294355253e-14 
   98       5.045171016901e-10       1.522565870047e-13      -4.410160051082e-12       0.000000000000e+00       1.349577248741e-11       1.960404191322e-12      -1.150495623006e-14 
   99       5.098167233618e-10       1.550446166556e-13      -4.537387427169e-12       0.000000000000e+00       1.312347919929e-11       1.917795090471e-12      -1.135244157764e-14 
  100       5.151504082974e-10       1.577986646529e-13      -4.664544405888e-12       0.000000000000e+00       1.276503755308e-11       1.876610270617e-12      -1.119778892849e-14 
  101       5.205168711580e-10       1.605159595687e-13      -4.791532804143e-12       0.000000000000e+00       1.241960570531e-11       1.836774923046e-12      -1.104356572358e-14 
  102       5.259144943592e-10       1.631937128011e-13      -4.918253727194e-12       0.000000000000e+00       1.208617348885e-11       1.798196745340e-12      -1.089252165415e-14 
  103       5.313413160850e-10       1.658291196811e-13      -5.044607623538e-12       0.000000000000e+00       1.176355720285e-11       1.760765385691e-12      -1.074759280421e-14 
  104       5.367954515127e-10       1.684194213545e-13      -5.170494397208e-12       0.000000000000e+00       1.145066347637e-11       1.724377912882e-12      -1.061127428611e-14 
  105       5.422764471061e-10       1.709620975636e-13      -5.295813643762e-12       0.000000000000e+00       1.114733267515e-11       1.689020341520e-12      -1.048363270707e-14 
  106       5.477840877746e-10       1.734547020921e-13      -5.420464548633e-12       0.000000000000e+00       1.085360024419e-11       1.654696134993e-12      -1.036403168881e-14 
  107       5.533179728620e-10       1.758948060701e-13      -5.544345887391e-12       0.000000000000e+00       1.056943558212e-11       1.621400896811e-12      -1.025173663576e-14 
