# Matter power spectrum P(k) at redshift z=0
# for k=1.04206e-05 to 1.08688 h/Mpc,
# number of wavenumbers equal to 603
#    1:k (h/Mpc)              2:P (Mpc/h)^3        
       1.042057218184e-05       3.001466199129e+02 
       2.326967407118e-05       5.553959101597e+02 
       3.616373025385e-05       7.785379857790e+02 
       4.913726151694e-05       9.845955743151e+02 
       6.222535674519e-05       1.179791763093e+03 
       7.546398425925e-05       1.367600666746e+03 
       8.889031306114e-05       1.550289241056e+03 
       1.025430482400e-04       1.729494294760e+03 
       1.164627848241e-04       1.906487942553e+03 
       1.306923843984e-04       2.082317121824e+03 
       1.452773788140e-04       2.257884270267e+03 
       1.602664052592e-04       2.433997883021e+03 
       1.757116767896e-04       2.611406189772e+03 
       1.916694920592e-04       2.790820391878e+03 
       2.082007873531e-04       2.972932899764e+03 
       2.253717329846e-04       3.158429977743e+03 
       2.432543744979e-04       3.348002757929e+03 
       2.619273167265e-04       3.542356028889e+03 
       2.814764453069e-04       3.742215527154e+03 
       3.019956754356e-04       3.948333221390e+03 
       3.235877111086e-04       4.161493234380e+03 
       3.463647893982e-04       4.382514090251e+03 
       3.704493731400e-04       4.612250904910e+03 
       3.959747414598e-04       4.851595701706e+03 
       4.230854108700e-04       5.101474126578e+03 
       4.519373007024e-04       5.362840774673e+03 
       4.826975366868e-04       5.636670181163e+03 
       5.155437679602e-04       5.923943087113e+03 
       5.506628596178e-04       6.225629260636e+03 
       5.882488207355e-04       6.542662680153e+03 
       6.284998437510e-04       6.875914528513e+03 
       6.716143729589e-04       7.226156622244e+03 
       7.177861941321e-04       7.594024946972e+03 
       7.671986460617e-04       7.979978248106e+03 
       8.200181922824e-04       8.384258115943e+03 
       8.763877404929e-04       8.806850851463e+03 
       9.364202297721e-04       9.247462417987e+03 
       1.000193085873e-03       9.705499252952e+03 
       1.067744139097e-03       1.018006727161e+04 
       1.139069488995e-03       1.066998830194e+04 
       1.214123592691e-03       1.117382968652e+04 
       1.292821585146e-03       1.168995388844e+04 
       1.375043566260e-03       1.221652406551e+04 
       1.460640369998e-03       1.275165597495e+04 
       1.549440206739e-03       1.329348186076e+04 
       1.641255555047e-03       1.384011448941e+04 
       1.735889757970e-03       1.438973175172e+04 
       1.833142917693e-03       1.494061697264e+04 
       1.932816842085e-03       1.549118186326e+04 
       2.034718945141e-03       1.603998174920e+04 
       2.138665120595e-03       1.658572262188e+04 
       2.244481687023e-03       1.712726219533e+04 
       2.352006545691e-03       1.766360667922e+04 
       2.461089706729e-03       1.819389933897e+04 
       2.571593333874e-03       1.871741264157e+04 
       2.683391441209e-03       1.923353272914e+04 
       2.796369353385e-03       1.974175334669e+04 
       2.910423018044e-03       2.024165847016e+04 
       3.025458238157e-03       2.073291616270e+04 
       3.141389873900e-03       2.121526219513e+04 
       3.258141048979e-03       2.168849787385e+04 
       3.375642384775e-03       2.215247457752e+04 
       3.493831276973e-03       2.260709205599e+04 
       3.612651222911e-03       2.305228638822e+04 
       3.732051203381e-03       2.348803146536e+04 
       3.851985119443e-03       2.391432575515e+04 
       3.972411282778e-03       2.433119726380e+04 
       4.093291956816e-03       2.473868716778e+04 
       4.214592945137e-03       2.513686417306e+04 
       4.336283223305e-03       2.552580062984e+04 
       4.458334610212e-03       2.590559331086e+04 
       4.580721475085e-03       2.627633785569e+04 
       4.703420476514e-03       2.663813183244e+04 
       4.826410330102e-03       2.699102299896e+04 
       4.949671601620e-03       2.733530583204e+04 
       5.073186522822e-03       2.767096250036e+04 
       5.196938827396e-03       2.799815727547e+04 
       5.320913604738e-03       2.831708313412e+04 
       5.445097169534e-03       2.862788122192e+04 
       5.569476945340e-03       2.893057162348e+04 
       5.694041360547e-03       2.922402928084e+04 
       5.818779755339e-03       2.951097644440e+04 
       5.943682298366e-03       2.979024405590e+04 
       6.068739912061e-03       3.006187787394e+04 
       6.193944205599e-03       3.032624028009e+04 
       6.319287414666e-03       3.058357514680e+04 
       6.444762347267e-03       3.083406548862e+04 
       6.570362334913e-03       3.107665498011e+04 
       6.696081188603e-03       3.131249281546e+04 
       6.821913159065e-03       3.154147041625e+04 
       6.947852900830e-03       3.176392584440e+04 
       7.073895439691e-03       3.197984359342e+04 
       7.200036143231e-03       3.218925683008e+04 
       7.326270694071e-03       3.239235514763e+04 
       7.452595065570e-03       3.258899060356e+04 
       7.579005499726e-03       3.277984561094e+04 
       7.705498487058e-03       3.296551579769e+04 
       7.832070748261e-03       3.314442393601e+04 
       7.958719217469e-03       3.331750763245e+04 
       8.085441026969e-03       3.348490320309e+04 
       8.212233493217e-03       3.364679951951e+04 
       8.339094104040e-03       3.380317613582e+04 
       8.466020506906e-03       3.395414652391e+04 
       8.593010498167e-03       3.409982367448e+04 
       8.720062013184e-03       3.424030419074e+04 
       8.847173117248e-03       3.437567190672e+04 
       8.974341997231e-03       3.450594443912e+04 
       9.101566953904e-03       3.463133400455e+04 
       9.228846394849e-03       3.475187480527e+04 
       9.356178827935e-03       3.486763209486e+04 
       9.483562855287e-03       3.497872789536e+04 
       9.610997167722e-03       3.508522577590e+04 
       9.738480539603e-03       3.518724805652e+04 
       9.866011824080e-03       3.528465935920e+04 
       9.993589948689e-03       3.537789671522e+04 
       1.012121391127e-02       3.546661585380e+04 
       1.024888277620e-02       3.555119488002e+04 
       1.037659567085e-02       3.563175035257e+04 
       1.050435178240e-02       3.570808496109e+04 
       1.063215035476e-02       3.578032050565e+04 
       1.075999068579e-02       3.584880746978e+04 
       1.088787212472e-02       3.591315437122e+04 
       1.101579406970e-02       3.597388414217e+04 
       1.114375596555e-02       3.603081299953e+04 
       1.127175730171e-02       3.608405975584e+04 
       1.139979761025e-02       3.613366303771e+04 
       1.152787646409e-02       3.617968624897e+04 
       1.165599347531e-02       3.622221435525e+04 
       1.178414829358e-02       3.626130031069e+04 
       1.191234060471e-02       3.629698504527e+04 
       1.204057012930e-02       3.632931234358e+04 
       1.216883662147e-02       3.635834348246e+04 
       1.229713986770e-02       3.638420726380e+04 
       1.242547968574e-02       3.640684558750e+04 
       1.255385592360e-02       3.642643378447e+04 
       1.268226845859e-02       3.644291938787e+04 
       1.281071719650e-02       3.645645530083e+04 
       1.293920207075e-02       3.646693632165e+04 
       1.306772304166e-02       3.647455560590e+04 
       1.319628009576e-02       3.647934139370e+04 
       1.332487324514e-02       3.648119233457e+04 
       1.345350252690e-02       3.648040023583e+04 
       1.358216800256e-02       3.647690799604e+04 
       1.371086975761e-02       3.647062169552e+04 
       1.383960790101e-02       3.646168244269e+04 
       1.396838256483e-02       3.645015752282e+04 
       1.409719390384e-02       3.643615633069e+04 
       1.422604209517e-02       3.641969612949e+04 
       1.435492733802e-02       3.640082502461e+04 
       1.448384985339e-02       3.637928801996e+04 
       1.461280988382e-02       3.635555780857e+04 
       1.474180769318e-02       3.632950869492e+04 
       1.487084356650e-02       3.630114722667e+04 
       1.499991780983e-02       3.627046931752e+04 
       1.512903075006e-02       3.623763245963e+04 
       1.525818273484e-02       3.620275853412e+04 
       1.538737413253e-02       3.616550859217e+04 
       1.551660533208e-02       3.612623018641e+04 
       1.564587674306e-02       3.608494810172e+04 
       1.577518879559e-02       3.604156853106e+04 
       1.590454194039e-02       3.599637391675e+04 
       1.603393664878e-02       3.594909757203e+04 
       1.616337341274e-02       3.589887465386e+04 
       1.629285274500e-02       3.584890273419e+04 
       1.642237517907e-02       3.579594389328e+04 
       1.655194126939e-02       3.574121616245e+04 
       1.668155159146e-02       3.568475662165e+04 
       1.681120674194e-02       3.562655706581e+04 
       1.694090733885e-02       3.556675704865e+04 
       1.707065402172e-02       3.550505434708e+04 
       1.720044745181e-02       3.544176201610e+04 
       1.733028831227e-02       3.537685773131e+04 
       1.746017730845e-02       3.531043400242e+04 
       1.759011516805e-02       3.524244010300e+04 
       1.772010264146e-02       3.517144541504e+04 
       1.785014050199e-02       3.510191845710e+04 
       1.798022954618e-02       3.502823631917e+04 
       1.811037059412e-02       3.495556067608e+04 
       1.824056448975e-02       3.487908113098e+04 
       1.837081210124e-02       3.480236043738e+04 
       1.850111432132e-02       3.472531224034e+04 
       1.863147206769e-02       3.464515371738e+04 
       1.876188628337e-02       3.456532038960e+04 
       1.889235793715e-02       3.448253505581e+04 
       1.902288802400e-02       3.440015258685e+04 
       1.915347756555e-02       3.431497730944e+04 
       1.928412761048e-02       3.422907796472e+04 
       1.941483923509e-02       3.414208296761e+04 
       1.954561354375e-02       3.405589996361e+04 
       1.967645166942e-02       3.396685268069e+04 
       1.980735477421e-02       3.387660217132e+04 
       1.993832404991e-02       3.378483773238e+04 
       2.006936071861e-02       3.369277077654e+04 
       2.020046603324e-02       3.359933643054e+04 
       2.033164127822e-02       3.350649642922e+04 
       2.046288777012e-02       3.341142052033e+04 
       2.059420685826e-02       3.331541357189e+04 
       2.072559992545e-02       3.321710959127e+04 
       2.085706838865e-02       3.311918418918e+04 
       2.098861369972e-02       3.302190519671e+04 
       2.112023734617e-02       3.292140767807e+04 
       2.125194085192e-02       3.282080297755e+04 
       2.138372577811e-02       3.271970597363e+04 
       2.151559372392e-02       3.261779216425e+04 
       2.164754632740e-02       3.251516709883e+04 
       2.177958526640e-02       3.241194363915e+04 
       2.191171225941e-02       3.230780404964e+04 
       2.204392906655e-02       3.220291803406e+04 
       2.217623749047e-02       3.209726624816e+04 
       2.230863937740e-02       3.199126566445e+04 
       2.244113661815e-02       3.188447535681e+04 
       2.257373114915e-02       3.177690882873e+04 
       2.270642495357e-02       3.166900875790e+04 
       2.283922006239e-02       3.156105182888e+04 
       2.297211855563e-02       3.145136419786e+04 
       2.310512256347e-02       3.134260612582e+04 
       2.323823426753e-02       3.123143677090e+04 
       2.337145590214e-02       3.112086779509e+04 
       2.350478975560e-02       3.100937812287e+04 
       2.363823817159e-02       3.089801348179e+04 
       2.377180355052e-02       3.078583854170e+04 
       2.390548835100e-02       3.067315709592e+04 
       2.403929509132e-02       3.056026859077e+04 
       2.417322635095e-02       3.044672327392e+04 
       2.430728477217e-02       3.033396192162e+04 
       2.444147306165e-02       3.021901099979e+04 
       2.457579399219e-02       3.010431143663e+04 
       2.471025040442e-02       2.999022687425e+04 
       2.484484520861e-02       2.987474590164e+04 
       2.497958138653e-02       2.975913851184e+04 
       2.511446199337e-02       2.964301685701e+04 
       2.524949015970e-02       2.952710207899e+04 
       2.538466909356e-02       2.941146757634e+04 
       2.552000208254e-02       2.929424569557e+04 
       2.565549249596e-02       2.917750497858e+04 
       2.579114378719e-02       2.906048499462e+04 
       2.592695949593e-02       2.894331395118e+04 
       2.606294325065e-02       2.882558109555e+04 
       2.619909877110e-02       2.870879203977e+04 
       2.633542987090e-02       2.859033321633e+04 
       2.647194046021e-02       2.847229612489e+04 
       2.660863454854e-02       2.835476188956e+04 
       2.674551624756e-02       2.823600538315e+04 
       2.688258977414e-02       2.811816136966e+04 
       2.701985945341e-02       2.799918164426e+04 
       2.715732972196e-02       2.788104350573e+04 
       2.729500513111e-02       2.776241661030e+04 
       2.743289035043e-02       2.764342020752e+04 
       2.757099017121e-02       2.752451260201e+04 
       2.770930951021e-02       2.740567348451e+04 
       2.784785341348e-02       2.728706637331e+04 
       2.798662706029e-02       2.716795095632e+04 
       2.812563576733e-02       2.704891738755e+04 
       2.826488499293e-02       2.693002854211e+04 
       2.840438034155e-02       2.681105719017e+04 
       2.854412756837e-02       2.669208152638e+04 
       2.868413258412e-02       2.657323045168e+04 
       2.882440146005e-02       2.645424257853e+04 
       2.896494043314e-02       2.633577673021e+04 
       2.910575591146e-02       2.621716371096e+04 
       2.924685447984e-02       2.609778480193e+04 
       2.938824290569e-02       2.597953053693e+04 
       2.952992814506e-02       2.586042809503e+04 
       2.967191734903e-02       2.574234587616e+04 
       2.981421787025e-02       2.562326939637e+04 
       2.995683726987e-02       2.550485560817e+04 
       3.009978332469e-02       2.538641111300e+04 
       3.024306403464e-02       2.526833477240e+04 
       3.038668763056e-02       2.515050236649e+04 
       3.053066258240e-02       2.503212184523e+04 
       3.067499760764e-02       2.491427895697e+04 
       3.081970168023e-02       2.479652353179e+04 
       3.096478403981e-02       2.467889625029e+04 
       3.111025420145e-02       2.456139152206e+04 
       3.125612196574e-02       2.444405757311e+04 
       3.140239742941e-02       2.432718113264e+04 
       3.154909099640e-02       2.421007378358e+04 
       3.169621338949e-02       2.409299238834e+04 
       3.184377566244e-02       2.397630050490e+04 
       3.199178921272e-02       2.385989453090e+04 
       3.214026579485e-02       2.374337748748e+04 
       3.228921753445e-02       2.362721180967e+04 
       3.243865694286e-02       2.351126167928e+04 
       3.258859693257e-02       2.339557246939e+04 
       3.273905083344e-02       2.327985675370e+04 
       3.289003240964e-02       2.316422460117e+04 
       3.304155587758e-02       2.304902371127e+04 
       3.319363592466e-02       2.293423052124e+04 
       3.334628772906e-02       2.281928404957e+04 
       3.349952698058e-02       2.270457256512e+04 
       3.365336990249e-02       2.258990664763e+04 
       3.380783327471e-02       2.247563630784e+04 
       3.396293445813e-02       2.236186442630e+04 
       3.411869142031e-02       2.224810019629e+04 
       3.427512276259e-02       2.213432855909e+04 
       3.443224774876e-02       2.202071934796e+04 
       3.459008633536e-02       2.190791514280e+04 
       3.474865920362e-02       2.179453737113e+04 
       3.490798779340e-02       2.168183357628e+04 
       3.506809433905e-02       2.156941185366e+04 
       3.522900190736e-02       2.145710251791e+04 
       3.539073443791e-02       2.134485701908e+04 
       3.555331678574e-02       2.123294440328e+04 
       3.571677476678e-02       2.112124337166e+04 
       3.588113520600e-02       2.100970667746e+04 
       3.604642598866e-02       2.089838884370e+04 
       3.621267611484e-02       2.078747660096e+04 
       3.637991575745e-02       2.067663471618e+04 
       3.654817632410e-02       2.056583560376e+04 
       3.671749052301e-02       2.045576097641e+04 
       3.688789243340e-02       2.034530744664e+04 
       3.705941758069e-02       2.023505084814e+04 
       3.723210301680e-02       2.012522615840e+04 
       3.740598740618e-02       2.001543857493e+04 
       3.758111111783e-02       1.990601442453e+04 
       3.775751632403e-02       1.979675186536e+04 
       3.793524710623e-02       1.968767412637e+04 
       3.811434956870e-02       1.957850986190e+04 
       3.829487196082e-02       1.946979040409e+04 
       3.847686480858e-02       1.936112811093e+04 
       3.866038105627e-02       1.925258008500e+04 
       3.884547621928e-02       1.914407966822e+04 
       3.903220854898e-02       1.903605301700e+04 
       3.922063921103e-02       1.892785851180e+04 
       3.941083247821e-02       1.881993183015e+04 
       3.960285593935e-02       1.871194368819e+04 
       3.979678072600e-02       1.860430828614e+04 
       3.999268175844e-02       1.849686221050e+04 
       4.019063801341e-02       1.838914422339e+04 
       4.039073281548e-02       1.828161306436e+04 
       4.059305415483e-02       1.817438517119e+04 
       4.079769503422e-02       1.806663978113e+04 
       4.100475384851e-02       1.795959056001e+04 
       4.121433480028e-02       1.785238570061e+04 
       4.142654835573e-02       1.774493984898e+04 
       4.164151174566e-02       1.763754137899e+04 
       4.185934951690e-02       1.753039742812e+04 
       4.208019414017e-02       1.742307373059e+04 
       4.230418668160e-02       1.731557347507e+04 
       4.253147754575e-02       1.720808772412e+04 
       4.276222729946e-02       1.710070575921e+04 
       4.299660758703e-02       1.699288193176e+04 
       4.323480214917e-02       1.688514158764e+04 
       4.347700795965e-02       1.677708231816e+04 
       4.372343649631e-02       1.666899641730e+04 
       4.397431516545e-02       1.656063574253e+04 
       4.422988890203e-02       1.645235807787e+04 
       4.449042197184e-02       1.634314895757e+04 
       4.475620000645e-02       1.623418407819e+04 
       4.502753230701e-02       1.612453110799e+04 
       4.530475446011e-02       1.601465771932e+04 
       4.558823131619e-02       1.590445801917e+04 
       4.587836039146e-02       1.579386547567e+04 
       4.617557576556e-02       1.568247132272e+04 
       4.648035256198e-02       1.557089352167e+04 
       4.679321211609e-02       1.545835188222e+04 
       4.711472795746e-02       1.534515684842e+04 
       4.744553276042e-02       1.523091276827e+04 
       4.778632645086e-02       1.511663806830e+04 
       4.813788569931e-02       1.500101622910e+04 
       4.850107508359e-02       1.488417352363e+04 
       4.887686027110e-02       1.476601495865e+04 
       4.926632365536e-02       1.464697657027e+04 
       4.967068298830e-02       1.452673346590e+04 
       5.009131368619e-02       1.440478386750e+04 
       5.052977566070e-02       1.428121551367e+04 
       5.098784574743e-02       1.415571794571e+04 
       5.146755708620e-02       1.402844439637e+04 
       5.197124716478e-02       1.389906150985e+04 
       5.250161668691e-02       1.376674005301e+04 
       5.306180198290e-02       1.363166253347e+04 
       5.365546435363e-02       1.349326937279e+04 
       5.428690051164e-02       1.335070715670e+04 
       5.496117909081e-02       1.320396945097e+04 
       5.568430885770e-02       1.305214791996e+04 
       5.646344436477e-02       1.289451112277e+04 
       5.730713347390e-02       1.272934288571e+04 
       5.822560673139e-02       1.255615061168e+04 
       5.923109774848e-02       1.237286806282e+04 
       6.033816081082e-02       1.217605888333e+04 
       6.156390783279e-02       1.196494880451e+04 
