# dimensionless total [l(l+1)/2pi] C_l's
# for l=2 to 3000, i.e. number of multipoles equal to 2999
#
# -> if you prefer output in CAMB/HealPix/LensPix units/order, set 'format' to 'camb' in input file
# -> if you don't want to see such a header, set 'headers' to 'no' in input file
# -> for CMB lensing (phi), these are C_l^phi-phi for the lensing potential.
#    Remember the conversion factors:
#    C_l^dd (deflection) = l(l+1) C_l^phi-phi
#    C_l^gg (shear/convergence) = 1/4 (l(l+1))^2 C_l^phi-phi
#
# 1:l     2:TT                     3:EE                     4:TE                     5:BB                     6:phiphi                 7:TPhi                   8:Ephi               
    2       6.396259197126e-10       2.112462742452e-14       2.028879028973e-12       0.000000000000e+00       2.412518665041e-08       1.127774429439e-09      -9.086559633033e-12 
    3       5.621322559150e-10       2.452275242893e-14       2.024138344543e-12       0.000000000000e+00       1.373646572883e-08       7.840807300508e-10      -6.255952300404e-12 
    4       5.007105322368e-10       1.989085817715e-14       1.742493682979e-12       0.000000000000e+00       9.056025305650e-09       5.784081085116e-10      -3.861638649335e-12 
    5       4.550977709203e-10       1.266545378642e-14       1.391292093441e-12       0.000000000000e+00       6.488655187995e-09       4.448717365169e-10      -2.076842112107e-12 
    6       4.213841605624e-10       6.811291930908e-15       1.061421254781e-12       0.000000000000e+00       4.901085372790e-09       3.530228672395e-10      -8.640560214423e-13 
    7       3.960659502837e-10       3.521904942170e-15       7.942794713913e-13       0.000000000000e+00       3.842545432098e-09       2.870016357371e-10      -1.350915609127e-13 
    8       3.768306033303e-10       2.146611184690e-15       5.997520482124e-13       0.000000000000e+00       3.097556601641e-09       2.380127109161e-10       2.218481661895e-13 
    9       3.619921646134e-10       1.636471326904e-15       4.722256484079e-13       0.000000000000e+00       2.551262280377e-09       2.008144404282e-10       3.222120690794e-13 
   10       3.502571968799e-10       1.345051289605e-15       3.991821326448e-13       0.000000000000e+00       2.137655242121e-09       1.719406201574e-10       2.714255995091e-13 
   11       3.410429910320e-10       1.097314226615e-15       3.660102369412e-13       0.000000000000e+00       1.790084600523e-09       1.521832036578e-10       1.575882076516e-13 
   12       3.336419016338e-10       9.285219410999e-16       3.589625667221e-13       0.000000000000e+00       1.539534727534e-09       1.324572554064e-10       3.625820502237e-14 
   13       3.276603415274e-10       8.678138546420e-16       3.671429242551e-13       0.000000000000e+00       1.337226511094e-09       1.169325722509e-10      -5.428803021364e-14 
   14       3.228439232953e-10       8.880589039815e-16       3.829094540911e-13       0.000000000000e+00       1.171466006891e-09       1.033686825413e-10      -1.030129083589e-13 
   15       3.190146336331e-10       9.508578587462e-16       4.016121265786e-13       0.000000000000e+00       1.033909975997e-09       9.220470115503e-11      -1.118861954774e-13 
   16       3.159233541147e-10       1.044828599750e-15       4.209192098846e-13       0.000000000000e+00       9.185081764621e-10       8.275089091813e-11      -9.343773204583e-14 
   17       3.135229848566e-10       1.182087310609e-15       4.400288764978e-13       0.000000000000e+00       8.207505627149e-10       7.461221743209e-11      -6.289986238301e-14 
   18       3.116112138155e-10       1.375138214463e-15       4.595122489109e-13       0.000000000000e+00       7.368955973019e-10       6.759379631344e-11      -3.391819917835e-14 
   19       3.102083370237e-10       1.623217196281e-15       4.799244982443e-13       0.000000000000e+00       6.652976298074e-10       6.156568908570e-11      -1.340548781829e-14 
   20       3.092183108485e-10       1.919144806939e-15       5.015750518428e-13       0.000000000000e+00       6.028954474617e-10       5.626797475174e-11      -5.687417742660e-15 
   21       3.086289783797e-10       2.259618510427e-15       5.242963541567e-13       0.000000000000e+00       5.485212837174e-10       5.158746315270e-11      -9.109256847036e-15 
   22       3.083422709349e-10       2.641790860356e-15       5.475392587387e-13       0.000000000000e+00       5.007016248999e-10       4.738897490865e-11      -1.893156685867e-14 
   23       3.083578930257e-10       3.065123122050e-15       5.704453593799e-13       0.000000000000e+00       4.586589638246e-10       4.364988263159e-11      -3.070086412697e-14 
   24       3.086310993707e-10       3.529346973265e-15       5.919454328057e-13       0.000000000000e+00       4.213016404189e-10       4.033498973936e-11      -3.977376772521e-14 
   25       3.091601456172e-10       4.033872913343e-15       6.113610631324e-13       0.000000000000e+00       3.881103708677e-10       3.739769108805e-11      -4.415482265300e-14 
   26       3.099018237798e-10       4.578578747035e-15       6.281427122847e-13       0.000000000000e+00       3.584070079692e-10       3.475807144943e-11      -4.310109680735e-14 
   27       3.108370744560e-10       5.167535532404e-15       6.420847481330e-13       0.000000000000e+00       3.317785592467e-10       3.237678505562e-11      -3.813295552067e-14 
   28       3.119230644365e-10       5.806061639508e-15       6.531610186231e-13       0.000000000000e+00       3.077095719928e-10       3.021140160966e-11      -3.168851705157e-14 
   29       3.131809713623e-10       6.496721746155e-15       6.616000207630e-13       0.000000000000e+00       2.860435826086e-10       2.825399192821e-11      -2.531080510246e-14 
   30       3.146120355561e-10       7.241178846868e-15       6.678010601544e-13       0.000000000000e+00       2.665139628332e-10       2.648875635653e-11      -2.053220370077e-14 
   31       3.161820189796e-10       8.040987484361e-15       6.721647404065e-13       0.000000000000e+00       2.486805292116e-10       2.488256973738e-11      -1.876439489487e-14 
   32       3.178971282545e-10       8.897692113155e-15       6.746083261179e-13       0.000000000000e+00       2.324295699617e-10       2.341685163098e-11      -1.958929629103e-14 
   33       3.197479981545e-10       9.812748693990e-15       6.748638203048e-13       0.000000000000e+00       2.176269519618e-10       2.206421774353e-11      -2.179711853357e-14 
   34       3.217025045385e-10       1.078741262656e-14       6.726259135965e-13       0.000000000000e+00       2.040422563315e-10       2.079106917816e-11      -2.404250873110e-14 
   35       3.237645995512e-10       1.182247034614e-14       6.676530259759e-13       0.000000000000e+00       1.915919392172e-10       1.960140604361e-11      -2.569428704816e-14 
   36       3.259306518091e-10       1.291838862623e-14       6.596946938165e-13       0.000000000000e+00       1.801621309434e-10       1.850692524679e-11      -2.626347902335e-14 
   37       3.281831837634e-10       1.407556236902e-14       6.485239675512e-13       0.000000000000e+00       1.695877596540e-10       1.751344870145e-11      -2.535712709868e-14 
   38       3.305319710917e-10       1.529497966327e-14       6.341513633221e-13       0.000000000000e+00       1.598330908052e-10       1.661571352121e-11      -2.330619412804e-14 
   39       3.329830080857e-10       1.657776645147e-14       6.166818101491e-13       0.000000000000e+00       1.508598063337e-10       1.579984665166e-11      -2.075318749664e-14 
   40       3.355253108704e-10       1.792500825548e-14       5.962598798107e-13       0.000000000000e+00       1.425723513283e-10       1.504393923734e-11      -1.849703123455e-14 
   41       3.381396008540e-10       1.933767330590e-14       5.730274200252e-13       0.000000000000e+00       1.348494798405e-10       1.432455633590e-11      -1.728312742439e-14 
   42       3.408318779188e-10       2.081635232705e-14       5.469751806190e-13       0.000000000000e+00       1.276631095444e-10       1.364035347884e-11      -1.706712314955e-14 
   43       3.436078895494e-10       2.236143369819e-14       5.180461677186e-13       0.000000000000e+00       1.209898496973e-10       1.299507070585e-11      -1.752843498512e-14 
   44       3.464626934471e-10       2.397316743201e-14       4.861747138062e-13       0.000000000000e+00       1.147754744087e-10       1.239090043037e-11      -1.826462116362e-14 
   45       3.493860252078e-10       2.565171636431e-14       4.512936108672e-13       0.000000000000e+00       1.089532025384e-10       1.182841128809e-11      -1.888212254745e-14 
   46       3.523826747371e-10       2.739734090400e-14       4.133606549098e-13       0.000000000000e+00       1.035107748372e-10       1.130664238294e-11      -1.931275771391e-14 
   47       3.554564981818e-10       2.921026018121e-14       3.723381589115e-13       0.000000000000e+00       9.843930085141e-11       1.082278467926e-11      -1.958324119746e-14 
   48       3.586039596094e-10       3.109059799916e-14       3.281847909519e-13       0.000000000000e+00       9.371308947336e-11       1.037197058716e-11      -1.972804355573e-14 
   49       3.618134964221e-10       3.303838061048e-14       2.808549444035e-13       0.000000000000e+00       8.928841394489e-11       9.947129666125e-12      -1.978984921658e-14 
   50       3.650714419576e-10       3.505350320519e-14       2.303048047894e-13       0.000000000000e+00       8.511614016971e-11       9.540943282383e-12      -1.981518387836e-14 
   51       3.683831607617e-10       3.713562380934e-14       1.765139529064e-13       0.000000000000e+00       8.118651790438e-11       9.152668839245e-12      -1.983883527309e-14 
   52       3.717565533262e-10       3.928423674265e-14       1.194685369618e-13       0.000000000000e+00       7.749441286176e-11       8.782918481685e-12      -1.989599501236e-14 
   53       3.751956820360e-10       4.149869778155e-14       5.915478121204e-14       0.000000000000e+00       7.402593724069e-11       8.431677597920e-12      -2.002694449618e-14 
   54       3.787004451568e-10       4.377822046308e-14      -4.441328709555e-15       0.000000000000e+00       7.075786711999e-11       8.098259297250e-12      -2.027728544499e-14 
   55       3.822686419472e-10       4.612196096271e-14      -7.132719690030e-14       0.000000000000e+00       6.766440481164e-11       7.781671777658e-12      -2.068238944509e-14 
   56       3.859035156166e-10       4.852930588646e-14      -1.414803572229e-13       0.000000000000e+00       6.474076784760e-11       7.481931586293e-12      -2.121569468877e-14 
   57       3.896075131641e-10       5.099964949865e-14      -2.148665061682e-13       0.000000000000e+00       6.198443952363e-11       7.198996865452e-12      -2.182796882931e-14 
   58       3.933798306438e-10       5.353231117219e-14      -2.914461949599e-13       0.000000000000e+00       5.938804737185e-11       6.932354251290e-12      -2.246158868984e-14 
   59       3.972161803139e-10       5.612653514352e-14      -3.711748651259e-13       0.000000000000e+00       5.693906672202e-11       6.680989438286e-12      -2.305015595175e-14 
   60       4.011085577845e-10       5.878149026747e-14      -4.540028840703e-13       0.000000000000e+00       5.461952426283e-11       6.443357743693e-12      -2.351811284293e-14 
   61       4.050485744749e-10       6.149614417487e-14      -5.398782447328e-13       0.000000000000e+00       5.241081285761e-11       6.217797645453e-12      -2.379825655652e-14 
   62       4.090388558506e-10       6.426885329190e-14      -6.287552921990e-13       0.000000000000e+00       5.031006952600e-11       6.003946456794e-12      -2.388974587915e-14 
   63       4.130838000871e-10       6.709767994247e-14      -7.205880279087e-13       0.000000000000e+00       4.831696437067e-11       5.801591627230e-12      -2.381249205985e-14 
   64       4.171861211681e-10       6.998050567866e-14      -8.153277361377e-13       0.000000000000e+00       4.642878211571e-11       5.610240733452e-12      -2.359058897281e-14 
   65       4.213467291589e-10       7.291502705055e-14      -9.129231040990e-13       0.000000000000e+00       4.464028784418e-11       5.429106099000e-12      -2.325249671887e-14 
   66       4.255646104790e-10       7.589875137603e-14      -1.013320342044e-12       0.000000000000e+00       4.294359273556e-11       5.257089413928e-12      -2.283122522706e-14 
   67       4.298367081750e-10       7.892899251055e-14      -1.116463303366e-12       0.000000000000e+00       4.132801980331e-11       5.092766354478e-12      -2.236451785608e-14 
   68       4.341596410127e-10       8.200309010891e-14      -1.222293656145e-12       0.000000000000e+00       3.978286192640e-11       4.934744964201e-12      -2.188774368249e-14 
   69       4.385355328712e-10       8.511912845713e-14      -1.330751169708e-12       0.000000000000e+00       3.830660500877e-11       4.782859501866e-12      -2.141049155907e-14 
   70       4.429671548816e-10       8.827535636473e-14      -1.441773702159e-12       0.000000000000e+00       3.689934106652e-11       4.637191980143e-12      -2.093554143548e-14 
   71       4.474561197236e-10       9.146997801928e-14      -1.555297273302e-12       0.000000000000e+00       3.555998207948e-11       4.497714090944e-12      -2.046573321763e-14 
   72       4.520028089274e-10       9.470115447211e-14      -1.671256186068e-12       0.000000000000e+00       3.428619970039e-11       4.364281384205e-12      -2.000396389064e-14 
   73       4.566063001746e-10       9.796700512403e-14      -1.789583147922e-12       0.000000000000e+00       3.307436496412e-11       4.236627446677e-12      -1.955318464171e-14 
   74       4.612642946001e-10       1.012656092110e-13      -1.910209392289e-12       0.000000000000e+00       3.191948799693e-11       4.114358080707e-12      -1.911639798302e-14 
   75       4.659730440934e-10       1.045950072898e-13      -2.033064799964e-12       0.000000000000e+00       3.081515772561e-11       3.996945483027e-12      -1.869665487469e-14 
   76       4.707288462675e-10       1.079530912726e-13      -2.158076360909e-12       0.000000000000e+00       2.975508586548e-11       3.883864385975e-12      -1.829680216180e-14 
   77       4.755330047973e-10       1.113372480954e-13      -2.285162967397e-12       0.000000000000e+00       2.873819720857e-11       3.775042010427e-12      -1.791867807441e-14 
   78       4.803876457470e-10       1.147446534681e-13      -2.414239887547e-12       0.000000000000e+00       2.776436235045e-11       3.670479969189e-12      -1.756376411442e-14 
   79       4.852941902517e-10       1.181723767745e-13      -2.545220426694e-12       0.000000000000e+00       2.683284880863e-11       3.570116720559e-12      -1.723341385892e-14 
   80       4.902533139653e-10       1.216173802725e-13      -2.678016014769e-12       0.000000000000e+00       2.594229362884e-11       3.473824658165e-12      -1.692884496314e-14 
   81       4.952649065085e-10       1.250765182945e-13      -2.812536293686e-12       0.000000000000e+00       2.509067599126e-11       3.381407200806e-12      -1.665113116334e-14 
   82       5.003280309164e-10       1.285465364476e-13      -2.948689204728e-12       0.000000000000e+00       2.427528981678e-11       3.292595882293e-12      -1.640119427965e-14 
   83       5.054408830861e-10       1.320240708142e-13      -3.086381075932e-12       0.000000000000e+00       2.349271637326e-11       3.207047441288e-12      -1.617979621905e-14 
   84       5.106015564147e-10       1.355057614548e-13      -3.225516222745e-12       0.000000000000e+00       2.273962872661e-11       3.124427032653e-12      -1.598696328393e-14 
   85       5.158105701853e-10       1.389886162898e-13      -3.365995482516e-12       0.000000000000e+00       2.201541832822e-11       3.044680085903e-12      -1.582016695989e-14 
   86       5.210686879321e-10       1.424697063561e-13      -3.507717596144e-12       0.000000000000e+00       2.131995565956e-11       2.967800389040e-12      -1.567582547658e-14 
   87       5.263761228967e-10       1.459460579722e-13      -3.650579751238e-12       0.000000000000e+00       2.065278388679e-11       2.893746532953e-12      -1.554982740782e-14 
   88       5.317325110085e-10       1.494146538598e-13      -3.794477661325e-12       0.000000000000e+00       2.001310544763e-11       2.822440448688e-12      -1.543751413340e-14 
   89       5.371368838649e-10       1.528724342653e-13      -3.939305645052e-12       0.000000000000e+00       1.939976863817e-11       2.753765944701e-12      -1.533366230092e-14 
   90       5.425876417118e-10       1.563162980808e-13      -4.084956705395e-12       0.000000000000e+00       1.881125419972e-11       2.687567244122e-12      -1.523246628759e-14 
   91       5.480825264242e-10       1.597431039657e-13      -4.231322608858e-12       0.000000000000e+00       1.824566190564e-11       2.623647522015e-12      -1.512752066204e-14 
   92       5.536185944862e-10       1.631496714679e-13      -4.378293964685e-12       0.000000000000e+00       1.770069714820e-11       2.561767442642e-12      -1.501180264617e-14 
   93       5.591930503647e-10       1.665328152381e-13      -4.525760576284e-12       0.000000000000e+00       1.717420027722e-11       2.501703396796e-12      -1.487929262022e-14 
   94       5.648059486944e-10       1.698894511227e-13      -4.673612383944e-12       0.000000000000e+00       1.666585481910e-11       2.443435410289e-12      -1.473015252829e-14 
   95       5.704578504364e-10       1.732165081745e-13      -4.821738811008e-12       0.000000000000e+00       1.617571256989e-11       2.386984923958e-12      -1.456629750299e-14 
   96       5.761489836910e-10       1.765108985368e-13      -4.970028586109e-12       0.000000000000e+00       1.570366785226e-11       2.332356977115e-12      -1.438983209837e-14 
   97       5.818792284885e-10       1.797695190183e-13      -5.118369826112e-12       0.000000000000e+00       1.524945155258e-11       2.279539564296e-12      -1.420305523684e-14 
   98       5.876481015808e-10       1.829892526693e-13      -5.266650119058e-12       0.000000000000e+00       1.481262515800e-11       2.228502992021e-12      -1.400846515623e-14 
   99       5.934547412314e-10       1.861669703570e-13      -5.414756607101e-12       0.000000000000e+00       1.439257479362e-11       2.179199235540e-12      -1.380876435665e-14 
  100       5.992978920066e-10       1.892995323413e-13      -5.562576069456e-12       0.000000000000e+00       1.398850525951e-11       2.131561295596e-12      -1.360686454757e-14 
  101       6.051758895667e-10       1.923837898503e-13      -5.709995005334e-12       0.000000000000e+00       1.359943406788e-11       2.085502555171e-12      -1.340589159469e-14 
  102       6.110866454560e-10       1.954165866561e-13      -5.856899716889e-12       0.000000000000e+00       1.322418548015e-11       2.040916136245e-12      -1.320919046698e-14 
  103       6.170276318947e-10       1.983947606501e-13      -6.003176392158e-12       0.000000000000e+00       1.286138454406e-11       1.997674256547e-12      -1.302033018363e-14 
  104       6.229964302245e-10       2.013152079743e-13      -6.148710704476e-12       0.000000000000e+00       1.250976112109e-11       1.955657514964e-12      -1.284234263423e-14 
  105       6.289924933835e-10       2.041750818868e-13      -6.293386370460e-12       0.000000000000e+00       1.216912158520e-11       1.914848638668e-12      -1.267531127980e-14 
  106       6.350155942702e-10       2.069716238224e-13      -6.437086550951e-12       0.000000000000e+00       1.183949788095e-11       1.875250259617e-12      -1.251846442661e-14 
  107       6.410652744426e-10       2.097021054721e-13      -6.579694393833e-12       0.000000000000e+00       1.152084672917e-11       1.836855806200e-12      -1.237090883552e-14 
