# dimensionless total [l(l+1)/2pi] C_l's
# for l=2 to 3000, i.e. number of multipoles equal to 2999
#
# -> if you prefer output in CAMB/HealPix/LensPix units/order, set 'format' to 'camb' in input file
# -> if you don't want to see such a header, set 'headers' to 'no' in input file
# -> for CMB lensing (phi), these are C_l^phi-phi for the lensing potential.
#    Remember the conversion factors:
#    C_l^dd (deflection) = l(l+1) C_l^phi-phi
#    C_l^gg (shear/convergence) = 1/4 (l(l+1))^2 C_l^phi-phi
#
# 1:l     2:TT                     3:EE                     4:TE                     5:BB                     6:phiphi                 7:TPhi                   8:Ephi               
    2       4.974352901215e-10       7.594473068797e-15       2.786034462585e-13       0.000000000000e+00       4.159465702181e-09       1.167951698661e-09      -1.984066754942e-12 
    3       3.919970364039e-10       5.917478616164e-15       4.714036283238e-13       0.000000000000e+00       2.674428677904e-09       7.970904649064e-10      -8.957190300723e-13 
    4       3.232508318759e-10       3.017750216815e-15       4.568246405617e-13       0.000000000000e+00       1.912706657821e-09       5.882578870046e-10      -1.197529806805e-13 
    5       2.772558872057e-10       1.452026770741e-15       3.580297530830e-13       0.000000000000e+00       1.455895049875e-09       4.561907556696e-10       2.221947079300e-13 
    6       2.455274764426e-10       8.413765252198e-16       2.570785347298e-13       0.000000000000e+00       1.153733652155e-09       3.661225253420e-10       2.679473461467e-13 
    7       2.229914349084e-10       5.597522587454e-16       1.908228106987e-13       0.000000000000e+00       9.409601432105e-10       3.013401412915e-10       1.891615253003e-13 
    8       2.065616425327e-10       4.036500873327e-16       1.617375530554e-13       0.000000000000e+00       7.842331462284e-10       2.527428905738e-10       1.030259180072e-13 
    9       1.943796576761e-10       3.343641384766e-16       1.563360136718e-13       0.000000000000e+00       6.647704677999e-10       2.151032914224e-10       5.469896914155e-14 
   10       1.853386905486e-10       3.265097204094e-16       1.602637826774e-13       0.000000000000e+00       5.712333091802e-10       1.853090702912e-10       3.992331718101e-14 
   11       1.787018456646e-10       3.633583978124e-16       1.657896921948e-13       0.000000000000e+00       4.955679402587e-10       1.623379178398e-10       3.875443343837e-14 
   12       1.738635321747e-10       4.391741949437e-16       1.721351068578e-13       0.000000000000e+00       4.348502248952e-10       1.425523152670e-10       3.440384174418e-14 
   13       1.703661527149e-10       5.531801843115e-16       1.810856874646e-13       0.000000000000e+00       3.846174038457e-10       1.261330905132e-10       2.527382725042e-14 
   14       1.679343480283e-10       7.056753000886e-16       1.934683013777e-13       0.000000000000e+00       3.425338537745e-10       1.123267320104e-10       1.533311325430e-14 
   15       1.664183060454e-10       8.953471113696e-16       2.083837301758e-13       0.000000000000e+00       3.068929117686e-10       1.005964992225e-10       8.474774985181e-15 
   16       1.656569353469e-10       1.120362825096e-15       2.232652533290e-13       0.000000000000e+00       2.764219317090e-10       9.053004858974e-11       5.228845302001e-15 
   17       1.654048223615e-10       1.381884802590e-15       2.360318204275e-13       0.000000000000e+00       2.501532440297e-10       8.181959404134e-11       3.645856994496e-15 
   18       1.656623932517e-10       1.684160104919e-15       2.464690335882e-13       0.000000000000e+00       2.272588045186e-10       7.422281988322e-11       1.614469959138e-15 
   19       1.664241888570e-10       2.031383826834e-15       2.552849411607e-13       0.000000000000e+00       2.073946645723e-10       6.766043812700e-11      -9.099972317142e-16 
   20       1.675360393717e-10       2.427518564667e-15       2.633645659768e-13       0.000000000000e+00       1.898410165109e-10       6.192171059242e-11      -3.273384606641e-15 
   21       1.689492219045e-10       2.875881585928e-15       2.705203873920e-13       0.000000000000e+00       1.743412737056e-10       5.686246262086e-11      -5.098451810426e-15 
   22       1.705925505516e-10       3.379330698724e-15       2.760955525233e-13       0.000000000000e+00       1.605389165345e-10       5.228782553687e-11      -6.142024783650e-15 
   23       1.724647271007e-10       3.940049176965e-15       2.793717944050e-13       0.000000000000e+00       1.482566362313e-10       4.818923615829e-11      -6.491089429609e-15 
   24       1.745494144979e-10       4.559856324576e-15       2.796839954694e-13       0.000000000000e+00       1.372244490349e-10       4.455959744028e-11      -6.451392044949e-15 
   25       1.768449729365e-10       5.241008377977e-15       2.771711028806e-13       0.000000000000e+00       1.273185425478e-10       4.132388763027e-11      -6.578890338272e-15 
   26       1.793250212930e-10       5.985897544996e-15       2.722498185658e-13       0.000000000000e+00       1.183646562236e-10       3.836177053452e-11      -7.419732626818e-15 
   27       1.819653550670e-10       6.797357770126e-15       2.650253256169e-13       0.000000000000e+00       1.102606152823e-10       3.566384114226e-11      -8.654338235219e-15 
   28       1.847272093206e-10       7.678276210039e-15       2.554705140539e-13       0.000000000000e+00       1.028726588655e-10       3.323342161151e-11      -9.727874953026e-15 
   29       1.876133274614e-10       8.631091519618e-15       2.433198268103e-13       0.000000000000e+00       9.616527379578e-11       3.105489770449e-11      -1.064622493681e-14 
   30       1.906200288266e-10       9.658005371379e-15       2.281823651560e-13       0.000000000000e+00       9.006827867185e-11       2.908120908590e-11      -1.162443098329e-14 
   31       1.937277463592e-10       1.076094434227e-14       2.096823716791e-13       0.000000000000e+00       8.445984247902e-11       2.724878469897e-11      -1.287211637405e-14 
   32       1.969415626122e-10       1.194113028962e-14       1.877960666512e-13       0.000000000000e+00       7.931215297604e-11       2.555268913546e-11      -1.434651806801e-14 
   33       2.002619746741e-10       1.319930994846e-14       1.626439028161e-13       0.000000000000e+00       7.458996128486e-11       2.399644340471e-11      -1.590482630279e-14 
   34       2.036781689481e-10       1.453597091274e-14       1.343469967050e-13       0.000000000000e+00       7.022862815619e-11       2.257348786953e-11      -1.738866714101e-14 
   35       2.071880274016e-10       1.595179685548e-14       1.028166890859e-13       0.000000000000e+00       6.620629147203e-11       2.127494254439e-11      -1.870622746265e-14 
   36       2.107824843744e-10       1.744734447979e-14       6.789054480823e-14       0.000000000000e+00       6.249103492083e-11       2.008257643637e-11      -1.977687649942e-14 
   37       2.144466041174e-10       1.902308730160e-14       2.940233151235e-14       0.000000000000e+00       5.903498492337e-11       1.897288370179e-11      -2.052962971176e-14 
   38       2.181861641692e-10       2.068002062980e-14      -1.276120916950e-14       0.000000000000e+00       5.582937956629e-11       1.794188391881e-11      -2.097408293496e-14 
   39       2.220082160170e-10       2.241925167725e-14      -5.870017168668e-14       0.000000000000e+00       5.286422376109e-11       1.698732360015e-11      -2.115387592077e-14 
   40       2.259130265956e-10       2.424184063622e-14      -1.085174133105e-13       0.000000000000e+00       5.011153902821e-11       1.610141184263e-11      -2.112920488047e-14 
   41       2.298964313157e-10       2.614834404977e-14      -1.622864085483e-13       0.000000000000e+00       4.753510766282e-11       1.527368816055e-11      -2.096460799378e-14 
   42       2.339595855596e-10       2.813726096994e-14      -2.199408977528e-13       0.000000000000e+00       4.512728977954e-11       1.450192210842e-11      -2.068471832215e-14 
   43       2.381011475145e-10       3.020608459752e-14      -2.813502460167e-13       0.000000000000e+00       4.288155213595e-11       1.378394033073e-11      -2.030608246310e-14 
   44       2.423139475397e-10       3.235168855632e-14      -3.463473769742e-13       0.000000000000e+00       4.078141432875e-11       1.311432420125e-11      -1.984955419026e-14 
   45       2.465889566427e-10       3.457083920962e-14      -4.147709936058e-13       0.000000000000e+00       3.880629432833e-11       1.248627898437e-11      -1.934006226107e-14 
   46       2.509298432363e-10       3.686198444167e-14      -4.866112731573e-13       0.000000000000e+00       3.695299132324e-11       1.189851421386e-11      -1.880523531275e-14 
   47       2.553418756801e-10       3.922394970778e-14      -5.619048559125e-13       0.000000000000e+00       3.521928112035e-11       1.134998245512e-11      -1.827679590497e-14 
   48       2.598275478155e-10       4.165544457167e-14      -6.406955345100e-13       0.000000000000e+00       3.359744040299e-11       1.083779992324e-11      -1.779122887460e-14 
   49       2.643863129983e-10       4.415506454057e-14      -7.230350935927e-13       0.000000000000e+00       3.207383862442e-11       1.035711156858e-11      -1.739000621436e-14 
   50       2.690161110869e-10       4.672104572162e-14      -8.089558041598e-13       0.000000000000e+00       3.063301525272e-11       9.902518399624e-12      -1.710766832080e-14 
   51       2.737190550928e-10       4.935044602352e-14      -8.983771568307e-13       0.000000000000e+00       2.927216303066e-11       9.473129196887e-12      -1.693173201918e-14 
   52       2.784968283651e-10       5.203974487340e-14      -9.911752637653e-13       0.000000000000e+00       2.798987059587e-11       9.068646821696e-12      -1.683228874174e-14 
   53       2.833488492574e-10       5.478506140609e-14      -1.087208508785e-12       0.000000000000e+00       2.678178837272e-11       8.687865884499e-12      -1.677285865482e-14 
   54       2.882720895341e-10       5.758214466724e-14      -1.186317053124e-12       0.000000000000e+00       2.564043154112e-11       8.328611347434e-12      -1.671004407259e-14 
   55       2.932627980816e-10       6.042657025441e-14      -1.288338742443e-12       0.000000000000e+00       2.455743315077e-11       7.988403918600e-12      -1.660382588796e-14 
   56       2.983225894993e-10       6.331440988837e-14      -1.393162587619e-12       0.000000000000e+00       2.353141029563e-11       7.666790460010e-12      -1.645224218854e-14 
   57       3.034535499698e-10       6.624171101779e-14      -1.500687704020e-12       0.000000000000e+00       2.256170695052e-11       7.363484960589e-12      -1.626471748024e-14 
   58       3.086563594489e-10       6.920430323905e-14      -1.610808215878e-12       0.000000000000e+00       2.164601567421e-11       7.077660105365e-12      -1.605224105122e-14 
   59       3.139301843045e-10       7.219779654250e-14      -1.723413401049e-12       0.000000000000e+00       2.078027603845e-11       6.807914194602e-12      -1.582743504854e-14 
   60       3.192725699557e-10       7.521757955863e-14      -1.838387835781e-12       0.000000000000e+00       1.995857305708e-11       6.552238062930e-12      -1.560462255492e-14 
   61       3.246806612052e-10       7.825886304805e-14      -1.955607393473e-12       0.000000000000e+00       1.917475925126e-11       6.308553568254e-12      -1.539664973126e-14 
   62       3.301554262048e-10       8.131682574605e-14      -2.074925863956e-12       0.000000000000e+00       1.842797608828e-11       6.076545140140e-12      -1.520436469820e-14 
   63       3.356981944049e-10       8.438649829129e-14      -2.196185573986e-12       0.000000000000e+00       1.771819728977e-11       5.856182510489e-12      -1.502488713245e-14 
   64       3.413093485829e-10       8.746272055880e-14      -2.319221281161e-12       0.000000000000e+00       1.704456860508e-11       5.647170771594e-12      -1.485461158800e-14 
   65       3.469882596081e-10       9.054014134175e-14      -2.443860187139e-12       0.000000000000e+00       1.640536093003e-11       5.448935430750e-12      -1.468917258182e-14 
   66       3.527332212079e-10       9.361321803323e-14      -2.569921950847e-12       0.000000000000e+00       1.579792342564e-11       5.260607464859e-12      -1.452340967950e-14 
   67       3.585413847333e-10       9.667621630796e-14      -2.697218701701e-12       0.000000000000e+00       1.521863663684e-11       5.081008375046e-12      -1.435133258095e-14 
   68       3.644097196786e-10       9.972334911706e-14      -2.825558940213e-12       0.000000000000e+00       1.466386426408e-11       4.908959370377e-12      -1.416773080758e-14 
   69       3.703382670622e-10       1.027492270882e-13      -2.954760128104e-12       0.000000000000e+00       1.413313721779e-11       4.744315075490e-12      -1.397345955781e-14 
   70       3.763274311058e-10       1.057484992361e-13      -3.084638684736e-12       0.000000000000e+00       1.362653348193e-11       4.587113393173e-12      -1.377116710451e-14 
   71       3.823769735065e-10       1.087157249107e-13      -3.215006436053e-12       0.000000000000e+00       1.314371558818e-11       4.437263371544e-12      -1.356375197873e-14 
   72       3.884859744369e-10       1.116453770424e-13      -3.345670727211e-12       0.000000000000e+00       1.268390927560e-11       4.294538548405e-12      -1.335437011681e-14 
   73       3.946527935446e-10       1.145318453863e-13      -3.476434535215e-12       0.000000000000e+00       1.224588215041e-11       4.158570295603e-12      -1.314644200745e-14 
   74       4.008750309524e-10       1.173694397673e-13      -3.607096581556e-12       0.000000000000e+00       1.182792234568e-11       4.028841163382e-12      -1.294365983880e-14 
   75       4.071494882578e-10       1.201523933248e-13      -3.737451444845e-12       0.000000000000e+00       1.142781718106e-11       3.904678224747e-12      -1.274999464558e-14 
   76       4.134728455682e-10       1.228749980866e-13      -3.867291176431e-12       0.000000000000e+00       1.104339325472e-11       3.785415404828e-12      -1.256865786160e-14 
   77       4.198439213524e-10       1.255320330606e-13      -3.996410238397e-12       0.000000000000e+00       1.067429759591e-11       3.670929356072e-12      -1.239875155821e-14 
   78       4.262617557428e-10       1.281184204654e-13      -4.124601674854e-12       0.000000000000e+00       1.032050405223e-11       3.561189664524e-12      -1.223801750751e-14 
   79       4.327249071350e-10       1.306291061885e-13      -4.251655829972e-12       0.000000000000e+00       9.981771003168e-12       3.456095395039e-12      -1.208381452396e-14 
   80       4.392314278701e-10       1.330590657443e-13      -4.377360491440e-12       0.000000000000e+00       9.657631532523e-12       3.355471900809e-12      -1.193310417070e-14 
   81       4.457788399173e-10       1.354033102326e-13      -4.501501033919e-12       0.000000000000e+00       9.347383600698e-12       3.259067632898e-12      -1.178243646588e-14 
   82       4.523641105570e-10       1.376568922967e-13      -4.623860562497e-12       0.000000000000e+00       9.050080217073e-12       3.166550949774e-12      -1.162793558899e-14 
   83       4.589836280631e-10       1.398149120820e-13      -4.744220056146e-12       0.000000000000e+00       8.764519612350e-12       3.077506926839e-12      -1.146528558719e-14 
   84       4.656337128499e-10       1.418726528198e-13      -4.862360875809e-12       0.000000000000e+00       8.489531212653e-12       2.991537349727e-12      -1.129084192004e-14 
   85       4.723123015409e-10       1.438260003546e-13      -4.978072452151e-12       0.000000000000e+00       8.224909560331e-12       2.908586729187e-12      -1.110520912645e-14 
   86       4.790174987963e-10       1.456711044136e-13      -5.091146141218e-12       0.000000000000e+00       7.970617918784e-12       2.828664734283e-12      -1.091023281007e-14 
   87       4.857470515793e-10       1.474042631808e-13      -5.201373153617e-12       0.000000000000e+00       7.726501451747e-12       2.751746379149e-12      -1.070793109404e-14 
   88       4.924983338381e-10       1.490219314339e-13      -5.308544737712e-12       0.000000000000e+00       7.492282367093e-12       2.677770566697e-12      -1.050049924900e-14 
   89       4.992683311882e-10       1.505207286815e-13      -5.412452362822e-12       0.000000000000e+00       7.267555060646e-12       2.606638632334e-12      -1.029031432110e-14 
   90       5.060536255943e-10       1.518974472996e-13      -5.512887902421e-12       0.000000000000e+00       7.051781259981e-12       2.538212887672e-12      -1.007993975995e-14 
   91       5.128503800523e-10       1.531490606689e-13      -5.609643817327e-12       0.000000000000e+00       6.844285168237e-12       2.472315164242e-12      -9.872130046590e-15 
   92       5.196543232715e-10       1.542727313111e-13      -5.702513338908e-12       0.000000000000e+00       6.644248607922e-12       2.408725357206e-12      -9.669835321515e-15 
   93       5.264612091441e-10       1.552659312260e-13      -5.791292790636e-12       0.000000000000e+00       6.450901230422e-12       2.347234336159e-12      -9.475614117871e-15 
   94       5.332683074743e-10       1.561268059324e-13      -5.875788554270e-12       0.000000000000e+00       6.264134416602e-12       2.287814943577e-12      -9.289760473840e-15 
   95       5.400731101770e-10       1.568538804777e-13      -5.955811494975e-12       0.000000000000e+00       6.083971157906e-12       2.230474141684e-12      -9.111902383825e-15 
   96       5.468728677845e-10       1.574459616639e-13      -6.031175126018e-12       0.000000000000e+00       5.910377068135e-12       2.175200236426e-12      -8.941565144738e-15 
   97       5.536645806461e-10       1.579021477250e-13      -6.101695821315e-12       0.000000000000e+00       5.743258204893e-12       2.121962167462e-12      -8.778167859144e-15 
   98       5.604449901275e-10       1.582218380032e-13      -6.167193027981e-12       0.000000000000e+00       5.582458891025e-12       2.070708798176e-12      -8.621019938395e-15 
   99       5.672105698103e-10       1.584047426267e-13      -6.227489478883e-12       0.000000000000e+00       5.427759536062e-12       2.021368205671e-12      -8.469317605774e-15 
  100       5.739575166910e-10       1.584508921863e-13      -6.282411405186e-12       0.000000000000e+00       5.278874457666e-12       1.973846970769e-12      -8.322140399629e-15 
  101       5.806817423809e-10       1.583606474125e-13      -6.331788748907e-12       0.000000000000e+00       5.135449703063e-12       1.928029468019e-12      -8.178447676517e-15 
  102       5.873788643052e-10       1.581347088523e-13      -6.375455375460e-12       0.000000000000e+00       4.997060870496e-12       1.883777155690e-12      -8.037075114340e-15 
  103       5.940441969024e-10       1.577741265467e-13      -6.413249286214e-12       0.000000000000e+00       4.863210930660e-12       1.840927865775e-12      -7.896731215484e-15 
  104       6.006731401844e-10       1.572803353120e-13      -6.445014267260e-12       0.000000000000e+00       4.733440687579e-12       1.799330623892e-12      -7.756241988063e-15 
  105       6.072624241489e-10       1.566552451705e-13      -6.470604631611e-12       0.000000000000e+00       4.607681847499e-12       1.758956995105e-12      -7.615330164613e-15 
  106       6.138090168447e-10       1.559011812330e-13      -6.489881516844e-12       0.000000000000e+00       4.485947805033e-12       1.719803525682e-12      -7.473935215359e-15 
  107       6.203097376420e-10       1.550208690240e-13      -6.502711731655e-12       0.000000000000e+00       4.368224333361e-12       1.681857240644e-12      -7.331973809431e-15 
