# dimensionless total [l(l+1)/2pi] C_l's
# for l=2 to 3000, i.e. number of multipoles equal to 2999
#
# -> if you prefer output in CAMB/HealPix/LensPix units/order, set 'format' to 'camb' in input file
# -> if you don't want to see such a header, set 'headers' to 'no' in input file
# -> for CMB lensing (phi), these are C_l^phi-phi for the lensing potential.
#    Remember the conversion factors:
#    C_l^dd (deflection) = l(l+1) C_l^phi-phi
#    C_l^gg (shear/convergence) = 1/4 (l(l+1))^2 C_l^phi-phi
#
# 1:l     2:TT                     3:EE                     4:TE                     5:BB                     6:phiphi                 7:TPhi                   8:Ephi               
    2       2.241560236173e-10       5.188736278515e-15       3.205535429472e-13       0.000000000000e+00       6.926911470231e-09       7.879713394709e-10      -1.990098801017e-12 
    3       1.962149625337e-10       5.959829236297e-15       3.949284483027e-13       0.000000000000e+00       4.306073549735e-09       5.441426678192e-10      -1.407023601979e-12 
    4       1.754132537590e-10       4.490190260953e-15       3.784007427021e-13       0.000000000000e+00       3.018109539652e-09       4.054456045164e-10      -8.070329738112e-13 
    5       1.607165662020e-10       2.607714399864e-15       3.219706398319e-13       0.000000000000e+00       2.265841520652e-09       3.166840583081e-10      -3.436224310299e-13 
    6       1.504546857241e-10       1.348203764765e-15       2.564591322705e-13       0.000000000000e+00       1.777244865233e-09       2.555332187367e-10      -4.583218851212e-14 
    7       1.433638835214e-10       7.805395953801e-16       1.992083942886e-13       0.000000000000e+00       1.438024286690e-09       2.113237539826e-10       1.032352491062e-13 
    8       1.384561863122e-10       5.703926791546e-16       1.573937909245e-13       0.000000000000e+00       1.191274354261e-09       1.781551343994e-10       1.419533874846e-13 
    9       1.351024052105e-10       4.595387629556e-16       1.320235408552e-13       0.000000000000e+00       1.005363109212e-09       1.525118101318e-10       1.149085611224e-13 
   10       1.329137607377e-10       3.731506909086e-16       1.205919574669e-13       0.000000000000e+00       8.611695217647e-10       1.322145803224e-10       6.197505339110e-14 
   11       1.315998412579e-10       3.203772145113e-16       1.192107068592e-13       0.000000000000e+00       7.372336048189e-10       1.164211843809e-10       1.248457162150e-14 
   12       1.309184036494e-10       3.052317978230e-16       1.240879885060e-13       0.000000000000e+00       6.455436761364e-10       1.026773233509e-10      -2.036365293364e-14 
   13       1.307686023729e-10       3.151179183588e-16       1.321554697327e-13       0.000000000000e+00       5.700512685808e-10       9.133183885716e-11      -3.228843119991e-14 
   14       1.310184036144e-10       3.417337227895e-16       1.413186460268e-13       0.000000000000e+00       5.070805811222e-10       8.175993595334e-11      -2.820578197438e-14 
   15       1.315731041088e-10       3.879768665503e-16       1.506586148531e-13       0.000000000000e+00       4.539492125988e-10       7.345105683141e-11      -1.662446135654e-14 
   16       1.324258390954e-10       4.589323659685e-16       1.601881269293e-13       0.000000000000e+00       4.086719205589e-10       6.638776595950e-11      -4.951084763232e-15 
   17       1.335401655551e-10       5.552770139763e-16       1.700899121630e-13       0.000000000000e+00       3.697503631488e-10       6.031551082925e-11       1.855734291007e-15 
   18       1.348081135995e-10       6.749883772139e-16       1.806398163068e-13       0.000000000000e+00       3.359084494968e-10       5.499874216760e-11       2.335482319590e-15 
   19       1.362437500766e-10       8.176790888299e-16       1.918770885252e-13       0.000000000000e+00       3.066191829437e-10       5.036042035457e-11      -1.979270101641e-15 
   20       1.378336078111e-10       9.829639614397e-16       2.036321881925e-13       0.000000000000e+00       2.807839458003e-10       4.624637713024e-11      -8.129637997042e-15 
   21       1.395673960964e-10       1.170572386562e-15       2.154538583100e-13       0.000000000000e+00       2.580089692841e-10       4.262126227669e-11      -1.363937155647e-14 
   22       1.413981444781e-10       1.380203777364e-15       2.267314013972e-13       0.000000000000e+00       2.377572748238e-10       3.942215719953e-11      -1.623913242290e-14 
   23       1.433321784003e-10       1.613007761401e-15       2.370794918559e-13       0.000000000000e+00       2.197578484723e-10       3.657057536375e-11      -1.587840837955e-14 
   24       1.453636176369e-10       1.870813229365e-15       2.461898599274e-13       0.000000000000e+00       2.036032718675e-10       3.395377488030e-11      -1.350534788447e-14 
   25       1.474772459841e-10       2.156193885800e-15       2.539386304489e-13       0.000000000000e+00       1.891091429290e-10       3.156536175769e-11      -1.045003160438e-14 
   26       1.496406412206e-10       2.471891227877e-15       2.603184423556e-13       0.000000000000e+00       1.760184949913e-10       2.940957241391e-11      -8.198270066050e-15 
   27       1.518674381913e-10       2.819392554079e-15       2.655228594185e-13       0.000000000000e+00       1.641774644712e-10       2.747232590090e-11      -7.231010549852e-15 
   28       1.541717465295e-10       3.199761484747e-15       2.697960458275e-13       0.000000000000e+00       1.533848859642e-10       2.571998508138e-11      -7.605859536400e-15 
   29       1.565563369568e-10       3.614280449658e-15       2.730924050698e-13       0.000000000000e+00       1.435875492086e-10       2.413871842635e-11      -8.864912753713e-15 
   30       1.590030567344e-10       4.064240373981e-15       2.752602439181e-13       0.000000000000e+00       1.346824074982e-10       2.270352313287e-11      -1.023628683555e-14 
   31       1.614812854145e-10       4.550866962530e-15       2.761231076828e-13       0.000000000000e+00       1.264905132877e-10       2.137665623411e-11      -1.092460628791e-14 
   32       1.639950685412e-10       5.075378420775e-15       2.755008194202e-13       0.000000000000e+00       1.189707805647e-10       2.015029690672e-11      -1.085971311219e-14 
   33       1.665506429735e-10       5.638937338358e-15       2.731923117683e-13       0.000000000000e+00       1.120710741319e-10       1.901736980010e-11      -1.022933239127e-14 
   34       1.691462101420e-10       6.242623921070e-15       2.690172427207e-13       0.000000000000e+00       1.056961253753e-10       1.796427882657e-11      -9.281320396670e-15 
   35       1.717837216137e-10       6.887418155578e-15       2.629870267078e-13       0.000000000000e+00       9.981395291544e-11       1.698803558110e-11      -8.288569635086e-15 
   36       1.744592344104e-10       7.574199583058e-15       2.551961046748e-13       0.000000000000e+00       9.437798819211e-11       1.608377652398e-11      -7.580144747429e-15 
   37       1.771643832561e-10       8.303809855281e-15       2.457425515901e-13       0.000000000000e+00       8.931825142649e-11       1.524275035130e-11      -7.455082073993e-15 
   38       1.799057770122e-10       9.077275496095e-15       2.346010275712e-13       0.000000000000e+00       8.462208399006e-11       1.446317599021e-11      -7.838952863924e-15 
   39       1.826907228291e-10       9.895652915038e-15       2.217088850059e-13       0.000000000000e+00       8.027499116547e-11       1.374214369799e-11      -8.512267313525e-15 
   40       1.855212770295e-10       1.075996683324e-14       2.069995648796e-13       0.000000000000e+00       7.623607784596e-11       1.307220396278e-11      -9.197469567908e-15 
   41       1.883954645279e-10       1.167113987492e-14       1.904050316356e-13       0.000000000000e+00       7.245236741075e-11       1.244390686083e-11      -9.633137291819e-15 
   42       1.913128380650e-10       1.262975750664e-14       1.718651972108e-13       0.000000000000e+00       6.891290587100e-11       1.185536124853e-11      -9.834884096275e-15 
   43       1.942697319627e-10       1.363622396568e-14       1.513207483268e-13       0.000000000000e+00       6.560839049695e-11       1.130512440510e-11      -9.912910723046e-15 
   44       1.972571476039e-10       1.469081834103e-14       1.287102121141e-13       0.000000000000e+00       6.251492478996e-11       1.078934860135e-11      -1.000277545365e-14 
   45       2.002648880132e-10       1.579374698028e-14       1.039751214208e-13       0.000000000000e+00       5.960257946355e-11       1.030319957143e-11      -1.023141026555e-14 
   46       2.032965380580e-10       1.694533423965e-14       7.707801960634e-14       0.000000000000e+00       5.686686601552e-11       9.846070548520e-12      -1.059947644550e-14 
   47       2.063581669300e-10       1.814587804412e-14       4.798935670528e-14       0.000000000000e+00       5.430469566689e-11       9.417600075780e-12      -1.106642029577e-14 
   48       2.094539170171e-10       1.939559328810e-14       1.668253797894e-14       0.000000000000e+00       5.190488657438e-11       9.016099798044e-12      -1.158240885654e-14 
   49       2.125858011249e-10       2.069460891638e-14      -1.686604551696e-14       0.000000000000e+00       4.964756165462e-11       8.638455019417e-12      -1.208780341618e-14 
   50       2.157545000487e-10       2.204298761225e-14      -5.267576301551e-14       0.000000000000e+00       4.751014875602e-11       8.281084118050e-12      -1.252563062257e-14 
   51       2.189624809543e-10       2.344079793429e-14      -9.075765195124e-14       0.000000000000e+00       4.548869827738e-11       7.943354509524e-12      -1.288420802917e-14 
   52       2.222113749319e-10       2.488805671455e-14      -1.311173464590e-13       0.000000000000e+00       4.358131107802e-11       7.624922015851e-12      -1.316517870171e-14 
   53       2.255008986184e-10       2.638470635168e-14      -1.737561175969e-13       0.000000000000e+00       4.178175730591e-11       7.324704611649e-12      -1.337160800467e-14 
   54       2.288286984947e-10       2.793061295571e-14      -2.186707852097e-13       0.000000000000e+00       4.007918492053e-11       7.040832810328e-12      -1.350806876324e-14 
   55       2.321917529888e-10       2.952547748830e-14      -2.658538081414e-13       0.000000000000e+00       3.846143271337e-11       6.771217447430e-12      -1.357996580587e-14 
   56       2.355913433714e-10       3.116854758316e-14      -3.152937830293e-13       0.000000000000e+00       3.692660090479e-11       6.515531864745e-12      -1.359111799630e-14 
   57       2.390290450122e-10       3.285883088618e-14      -3.669749150426e-13       0.000000000000e+00       3.547384438682e-11       6.273635240790e-12      -1.354572469439e-14 
   58       2.425051848246e-10       3.459517065698e-14      -4.208767709682e-13       0.000000000000e+00       3.409987230686e-11       6.044973333165e-12      -1.344912806712e-14 
   59       2.460187462571e-10       3.637624052397e-14      -4.769741980229e-13       0.000000000000e+00       3.279879702565e-11       5.828552919178e-12      -1.330786861611e-14 
   60       2.495672742843e-10       3.820053923939e-14      -5.352372426646e-13       0.000000000000e+00       3.156198307506e-11       5.622916236460e-12      -1.312974070515e-14 
   61       2.531481978082e-10       4.006655368384e-14      -5.956347770735e-13       0.000000000000e+00       3.038044527408e-11       5.426543058765e-12      -1.292296902100e-14 
   62       2.567633586622e-10       4.197330250070e-14      -6.581465134727e-13       0.000000000000e+00       2.925301379241e-11       5.239220208711e-12      -1.269339632597e-14 
   63       2.604153352222e-10       4.391990573438e-14      -7.227535547532e-13       0.000000000000e+00       2.817974213687e-11       5.060935490285e-12      -1.244676012807e-14 
   64       2.641060656561e-10       4.590542744015e-14      -7.894349605031e-13       0.000000000000e+00       2.715945094774e-11       4.891465426048e-12      -1.218954313390e-14 
   65       2.678367978886e-10       4.792887577759e-14      -8.581677834608e-13       0.000000000000e+00       2.618965783955e-11       4.730363266301e-12      -1.192900088412e-14 
   66       2.716080395656e-10       4.998920310409e-14      -9.289271059681e-13       0.000000000000e+00       2.526650724174e-11       4.576946998244e-12      -1.167318938882e-14 
   67       2.754195080181e-10       5.208530606835e-14      -1.001686076424e-12       0.000000000000e+00       2.438470023945e-11       4.430287355138e-12      -1.143099276287e-14 
   68       2.792706813451e-10       5.421594376527e-14      -1.076413061958e-12       0.000000000000e+00       2.353890813437e-11       4.289455629920e-12      -1.121031258297e-14 
   69       2.831626931709e-10       5.637947273421e-14      -1.153062355012e-12       0.000000000000e+00       2.272850255666e-11       4.154352228171e-12      -1.101214815156e-14 
   70       2.870967336936e-10       5.857405818566e-14      -1.231581640502e-12       0.000000000000e+00       2.195366216480e-11       4.025025232307e-12      -1.083536087276e-14 
   71       2.910734484959e-10       6.079774922244e-14      -1.311914676348e-12       0.000000000000e+00       2.121394209326e-11       3.901420201291e-12      -1.067838736805e-14 
   72       2.950929038837e-10       6.304847683765e-14      -1.394001256180e-12       0.000000000000e+00       2.050824174002e-11       3.783374824412e-12      -1.053922009686e-14 
   73       2.991545522240e-10       6.532405191245e-14      -1.477777172029e-12       0.000000000000e+00       1.983477255412e-11       3.670613575058e-12      -1.041538797723e-14 
   74       3.032571972834e-10       6.762216321397e-14      -1.563174177032e-12       0.000000000000e+00       1.919102582318e-11       3.562742364494e-12      -1.030393700637e-14 
   75       3.073989595662e-10       6.994037539315e-14      -1.650119948131e-12       0.000000000000e+00       1.857374046093e-11       3.459243195642e-12      -1.020141088123e-14 
   76       3.115780081791e-10       7.227622619081e-14      -1.738541281506e-12       0.000000000000e+00       1.797971106420e-11       3.359603954374e-12      -1.010447853285e-14 
   77       3.157949871228e-10       7.462754294585e-14      -1.828374434050e-12       0.000000000000e+00       1.740845340749e-11       3.263746925861e-12      -1.001199168021e-14 
   78       3.200509705283e-10       7.699218043452e-14      -1.919556608710e-12       0.000000000000e+00       1.685996874893e-11       3.171669070284e-12      -9.923269016008e-15 
   79       3.243467167449e-10       7.936792681422e-14      -2.012022917567e-12       0.000000000000e+00       1.633393194190e-11       3.083311284151e-12      -9.837476563815e-15 
   80       3.286826493965e-10       8.175250365568e-14      -2.105706410823e-12       0.000000000000e+00       1.582967645303e-11       2.998555825169e-12      -9.753621564215e-15 
   81       3.330588384379e-10       8.414356597519e-14      -2.200538105797e-12       0.000000000000e+00       1.534617938013e-11       2.917223737130e-12      -9.670546360877e-15 
   82       3.374749812117e-10       8.653870226680e-14      -2.296447015907e-12       0.000000000000e+00       1.488204647009e-11       2.839072274793e-12      -9.586922286639e-15 
   83       3.419303835042e-10       8.893543453452e-14      -2.393360179665e-12       0.000000000000e+00       1.443549713685e-11       2.763792328761e-12      -9.501243549601e-15 
   84       3.464242651107e-10       9.133124457211e-14      -2.491201962126e-12       0.000000000000e+00       1.400479594626e-11       2.691084384723e-12      -9.412259110262e-15 
   85       3.509567762277e-10       9.372365773753e-14      -2.589891762684e-12       0.000000000000e+00       1.358966207622e-11       2.620906510329e-12      -9.320363967614e-15 
   86       3.555281156083e-10       9.611017319015e-14      -2.689345978663e-12       0.000000000000e+00       1.319006713271e-11       2.553262949078e-12      -9.226428381640e-15 
   87       3.601382077442e-10       9.848823934432e-14      -2.789478715579e-12       0.000000000000e+00       1.280580208955e-11       2.488128004482e-12      -9.131381618211e-15 
   88       3.647866893762e-10       1.008552543427e-13      -2.890201803907e-12       0.000000000000e+00       1.243646981004e-11       2.425444784855e-12      -9.036213196361e-15 
   89       3.694728960047e-10       1.032085665298e-13      -2.991424815838e-12       0.000000000000e+00       1.208147756848e-11       2.365123948095e-12      -8.941974135577e-15 
   90       3.741958483999e-10       1.055454749248e-13      -3.093055082044e-12       0.000000000000e+00       1.174002957180e-11       2.307042446477e-12      -8.849778203074e-15 
   91       3.789542391120e-10       1.078632296956e-13      -3.194997708436e-12       0.000000000000e+00       1.141111948113e-11       2.251042271433e-12      -8.760803161081e-15 
   92       3.837464189824e-10       1.101590326317e-13      -3.297155592931e-12       0.000000000000e+00       1.109352293338e-11       2.196929198344e-12      -8.676292014126e-15 
   93       3.885707901265e-10       1.124301046240e-13      -3.399431016018e-12       0.000000000000e+00       1.078608709877e-11       2.144518247825e-12      -8.597210837106e-15 
   94       3.934270817965e-10       1.146738986863e-13      -3.501730649706e-12       0.000000000000e+00       1.048866541332e-11       2.093780617285e-12      -8.523160682082e-15 
   95       3.983152423608e-10       1.168879199966e-13      -3.603961336420e-12       0.000000000000e+00       1.020131025747e-11       2.044716629946e-12      -8.453303566824e-15 
   96       4.032350421242e-10       1.190696631196e-13      -3.706028620168e-12       0.000000000000e+00       9.923985090972e-12       1.997310381645e-12      -8.386687892218e-15 
   97       4.081860654179e-10       1.212166134000e-13      -3.807836784906e-12       0.000000000000e+00       9.656561051847e-12       1.951529126888e-12      -8.322244975496e-15 
   98       4.131677026894e-10       1.233262483555e-13      -3.909288892902e-12       0.000000000000e+00       9.398813555312e-12       1.907322664911e-12      -8.258785583455e-15 
   99       4.181791425928e-10       1.253960390701e-13      -4.010286823105e-12       0.000000000000e+00       9.150418892737e-12       1.864622725730e-12      -8.194996465684e-15 
  100       4.232193640786e-10       1.274234515871e-13      -4.110731309505e-12       0.000000000000e+00       8.910950830588e-12       1.823342356202e-12      -8.129436887783e-15 
  101       4.282871284834e-10       1.294059483023e-13      -4.210521979503e-12       0.000000000000e+00       8.679877209380e-12       1.783375306079e-12      -8.060535164586e-15 
  102       4.333809716205e-10       1.313409893569e-13      -4.309557392271e-12       0.000000000000e+00       8.456556542619e-12       1.744595414065e-12      -7.986585193391e-15 
  103       4.384991958692e-10       1.332260340311e-13      -4.407735077124e-12       0.000000000000e+00       8.240234615752e-12       1.706855993871e-12      -7.905742987174e-15 
  104       4.436401357962e-10       1.350586106812e-13      -4.504952527099e-12       0.000000000000e+00       8.030214860208e-12       1.670024602469e-12      -7.816512428051e-15 
  105       4.488030129199e-10       1.368365343119e-13      -4.601110249954e-12       0.000000000000e+00       7.826403012260e-12       1.634094016147e-12      -7.719284725849e-15 
  106       4.539871822029e-10       1.385577211290e-13      -4.696109202759e-12       0.000000000000e+00       7.628830031617e-12       1.599085170925e-12      -7.615001422990e-15 
  107       4.591918639873e-10       1.402201247401e-13      -4.789849921750e-12       0.000000000000e+00       7.437483423073e-12       1.565012896638e-12      -7.504685630889e-15 
