# Matter power spectrum P(k) at redshift z=0
# for k=1.04206e-05 to 1.08688 h/Mpc,
# number of wavenumbers equal to 603
#    1:k (h/Mpc)              2:P (Mpc/h)^3        
       1.042057218184e-05       5.097745125904e+01 
       2.326967407118e-05       1.107712309664e+02 
       3.616373025385e-05       1.695901688331e+02 
       4.913726151694e-05       2.280375307068e+02 
       6.222535674519e-05       2.864607516150e+02 
       7.546398425925e-05       3.451227834761e+02 
       8.889031306114e-05       4.042500357441e+02 
       1.025430482400e-04       4.640522506438e+02 
       1.164627848241e-04       5.247326725154e+02 
       1.306923843984e-04       5.864940584861e+02 
       1.452773788140e-04       6.495432640278e+02 
       1.602664052592e-04       7.140944179330e+02 
       1.757116767896e-04       7.803718801298e+02 
       1.916694920592e-04       8.486130062245e+02 
       2.082007873531e-04       9.190706942732e+02 
       2.253717329846e-04       9.920159417803e+02 
       2.432543744979e-04       1.067740195982e+03 
       2.619273167265e-04       1.146558403503e+03 
       2.814764453069e-04       1.228811180811e+03 
       3.019956754356e-04       1.314867668333e+03 
       3.235877111086e-04       1.405127793256e+03 
       3.463647893982e-04       1.500024620389e+03 
       3.704493731400e-04       1.600026144479e+03 
       3.959747414598e-04       1.705636410143e+03 
       4.230854108700e-04       1.817395965600e+03 
       4.519373007024e-04       1.935880708806e+03 
       4.826975366868e-04       2.061699298459e+03 
       5.155437679602e-04       2.195488124474e+03 
       5.506628596178e-04       2.337903965718e+03 
       5.882488207355e-04       2.489612914089e+03 
       6.284998437510e-04       2.651276192960e+03 
       6.716143729589e-04       2.823531964270e+03 
       7.177861941321e-04       3.006973668518e+03 
       7.671986460617e-04       3.202125483055e+03 
       8.200181922824e-04       3.409415974201e+03 
       8.763877404929e-04       3.629152318750e+03 
       9.364202297721e-04       3.861495494687e+03 
       1.000193085873e-03       4.106443001106e+03 
       1.067744139097e-03       4.363815758521e+03 
       1.139069488995e-03       4.633255842569e+03 
       1.214123592691e-03       4.914234426217e+03 
       1.292821585146e-03       5.206067083947e+03 
       1.375043566260e-03       5.507918253446e+03 
       1.460640369998e-03       5.818868573274e+03 
       1.549440206739e-03       6.137954529593e+03 
       1.641255555047e-03       6.464152509849e+03 
       1.735889757970e-03       6.796432400228e+03 
       1.833142917693e-03       7.133778489594e+03 
       1.932816842085e-03       7.475210891346e+03 
       2.034718945141e-03       7.819800333917e+03 
       2.138665120595e-03       8.166678181287e+03 
       2.244481687023e-03       8.515038900124e+03 
       2.352006545691e-03       8.864148486499e+03 
       2.461089706729e-03       9.213339278100e+03 
       2.571593333874e-03       9.562007928120e+03 
       2.683391441209e-03       9.909616863229e+03 
       2.796369353385e-03       1.025568255389e+04 
       2.910423018044e-03       1.059978111124e+04 
       3.025458238157e-03       1.094153464005e+04 
       3.141389873900e-03       1.128061039310e+04 
       3.258141048979e-03       1.161671917564e+04 
       3.375642384775e-03       1.194960841716e+04 
       3.493831276973e-03       1.227905686781e+04 
       3.612651222911e-03       1.260487688040e+04 
       3.732051203381e-03       1.292690482769e+04 
       3.851985119443e-03       1.324500318742e+04 
       3.972411282778e-03       1.355906137803e+04 
       4.093291956816e-03       1.386897656474e+04 
       4.214592945137e-03       1.417467213627e+04 
       4.336283223305e-03       1.447607929146e+04 
       4.458334610212e-03       1.477315990586e+04 
       4.580721475085e-03       1.506586321712e+04 
       4.703420476514e-03       1.535416098605e+04 
       4.826410330102e-03       1.563801145500e+04 
       4.949671601620e-03       1.591745561384e+04 
       5.073186522822e-03       1.619244226434e+04 
       5.196938827396e-03       1.646302825019e+04 
       5.320913604738e-03       1.672920320689e+04 
       5.445097169534e-03       1.699095369089e+04 
       5.569476945340e-03       1.724829406068e+04 
       5.694041360547e-03       1.750123532792e+04 
       5.818779755339e-03       1.774979592791e+04 
       5.943682298366e-03       1.799400456134e+04 
       6.068739912061e-03       1.823387309756e+04 
       6.193944205599e-03       1.846944297149e+04 
       6.319287414666e-03       1.870072467867e+04 
       6.444762347267e-03       1.892776096741e+04 
       6.570362334913e-03       1.915034581485e+04 
       6.696081188603e-03       1.936899919325e+04 
       6.821913159065e-03       1.958350582576e+04 
       6.947852900830e-03       1.979388914940e+04 
       7.073895439691e-03       2.000017022204e+04 
       7.200036143231e-03       2.020241478579e+04 
       7.326270694071e-03       2.040064876139e+04 
       7.452595065570e-03       2.059490299258e+04 
       7.579005499726e-03       2.078510070455e+04 
       7.705498487058e-03       2.097152502832e+04 
       7.832070748261e-03       2.115413721873e+04 
       7.958719217469e-03       2.133291942075e+04 
       8.085441026969e-03       2.150791083828e+04 
       8.212233493217e-03       2.167915035502e+04 
       8.339094104040e-03       2.184678802259e+04 
       8.466020506906e-03       2.201074661164e+04 
       8.593010498167e-03       2.217108508300e+04 
       8.720062013184e-03       2.232782526379e+04 
       8.847173117248e-03       2.248123819930e+04 
       8.974341997231e-03       2.263104191106e+04 
       9.101566953904e-03       2.277736136292e+04 
       9.228846394849e-03       2.291998612330e+04 
       9.356178827935e-03       2.305932126810e+04 
       9.483562855287e-03       2.319553829825e+04 
       9.610997167722e-03       2.332835779240e+04 
       9.738480539603e-03       2.345789576079e+04 
       9.866011824080e-03       2.358417579293e+04 
       9.993589948689e-03       2.370726817554e+04 
       1.012121391127e-02       2.382744143084e+04 
       1.024888277620e-02       2.394393345190e+04 
       1.037659567085e-02       2.405764161187e+04 
       1.050435178240e-02       2.416824412682e+04 
       1.063215035476e-02       2.427575495680e+04 
       1.075999068579e-02       2.438038636418e+04 
       1.088787212472e-02       2.448198822808e+04 
       1.101579406970e-02       2.458077835034e+04 
       1.114375596555e-02       2.467679723203e+04 
       1.127175730171e-02       2.476963734439e+04 
       1.139979761025e-02       2.485959018512e+04 
       1.152787646409e-02       2.494688910869e+04 
       1.165599347531e-02       2.503151204638e+04 
       1.178414829358e-02       2.511315759812e+04 
       1.191234060471e-02       2.519276981688e+04 
       1.204057012930e-02       2.526889372635e+04 
       1.216883662147e-02       2.534275030147e+04 
       1.229713986770e-02       2.541418806988e+04 
       1.242547968574e-02       2.548299489155e+04 
       1.255385592360e-02       2.554912902057e+04 
       1.268226845859e-02       2.561295516898e+04 
       1.281071719650e-02       2.567386345396e+04 
       1.293920207075e-02       2.573259851674e+04 
       1.306772304166e-02       2.578886417789e+04 
       1.319628009576e-02       2.584278850810e+04 
       1.332487324514e-02       2.589429800988e+04 
       1.345350252690e-02       2.594390109293e+04 
       1.358216800256e-02       2.599031256619e+04 
       1.371086975761e-02       2.603505638752e+04 
       1.383960790101e-02       2.607726924959e+04 
       1.396838256483e-02       2.611741199465e+04 
       1.409719390384e-02       2.615540930240e+04 
       1.422604209517e-02       2.619127292160e+04 
       1.435492733802e-02       2.622471717994e+04 
       1.448384985339e-02       2.625618563529e+04 
       1.461280988382e-02       2.628551527800e+04 
       1.474180769318e-02       2.631301185780e+04 
       1.487084356650e-02       2.633826064483e+04 
       1.499991780983e-02       2.636154392632e+04 
       1.512903075006e-02       2.638282404975e+04 
       1.525818273484e-02       2.640216566370e+04 
       1.538737413253e-02       2.641978838192e+04 
       1.551660533208e-02       2.643510886018e+04 
       1.564587674306e-02       2.644877099445e+04 
       1.577518879559e-02       2.646051243612e+04 
       1.590454194039e-02       2.647052779752e+04 
       1.603393664878e-02       2.647859174342e+04 
       1.616337341274e-02       2.648492233849e+04 
       1.629285274500e-02       2.648952923264e+04 
       1.642237517907e-02       2.649245242786e+04 
       1.655194126939e-02       2.649358466240e+04 
       1.668155159146e-02       2.649285602199e+04 
       1.681120674194e-02       2.649072923021e+04 
       1.694090733885e-02       2.648675870032e+04 
       1.707065402172e-02       2.648139867958e+04 
       1.720044745181e-02       2.647420372541e+04 
       1.733028831227e-02       2.646550447038e+04 
       1.746017730845e-02       2.645524643117e+04 
       1.759011516805e-02       2.644355745092e+04 
       1.772010264146e-02       2.643027704126e+04 
       1.785014050199e-02       2.641541994103e+04 
       1.798022954618e-02       2.639923052543e+04 
       1.811037059412e-02       2.638158508184e+04 
       1.824056448975e-02       2.636241594506e+04 
       1.837081210124e-02       2.634186034592e+04 
       1.850111432132e-02       2.632003527702e+04 
       1.863147206769e-02       2.629666200109e+04 
       1.876188628337e-02       2.627204171731e+04 
       1.889235793715e-02       2.624619922547e+04 
       1.902288802400e-02       2.621901796355e+04 
       1.915347756555e-02       2.619057289439e+04 
       1.928412761048e-02       2.616089475719e+04 
       1.941483923509e-02       2.612983873809e+04 
       1.954561354375e-02       2.609762492184e+04 
       1.967645166942e-02       2.606421477023e+04 
       1.980735477421e-02       2.602962068214e+04 
       1.993832404991e-02       2.599394862992e+04 
       2.006936071861e-02       2.595702211543e+04 
       2.020046603324e-02       2.591896728707e+04 
       2.033164127822e-02       2.587984905188e+04 
       2.046288777012e-02       2.583965203098e+04 
       2.059420685826e-02       2.579837251608e+04 
       2.072559992545e-02       2.575608075626e+04 
       2.085706838865e-02       2.571259456312e+04 
       2.098861369972e-02       2.566825471273e+04 
       2.112023734617e-02       2.562272993788e+04 
       2.125194085192e-02       2.557653586428e+04 
       2.138372577811e-02       2.552917901271e+04 
       2.151559372392e-02       2.548095041443e+04 
       2.164754632740e-02       2.543180212143e+04 
       2.177958526640e-02       2.538176331496e+04 
       2.191171225941e-02       2.533091935459e+04 
       2.204392906655e-02       2.527908295957e+04 
       2.217623749047e-02       2.522654111820e+04 
       2.230863937740e-02       2.517316349229e+04 
       2.244113661815e-02       2.511893059705e+04 
       2.257373114915e-02       2.506381235283e+04 
       2.270642495357e-02       2.500790480029e+04 
       2.283922006239e-02       2.495122810606e+04 
       2.297211855563e-02       2.489382747429e+04 
       2.310512256347e-02       2.483564028568e+04 
       2.323823426753e-02       2.477679784558e+04 
       2.337145590214e-02       2.471723375411e+04 
       2.350478975560e-02       2.465691035115e+04 
       2.363823817159e-02       2.459597300133e+04 
       2.377180355052e-02       2.453438567180e+04 
       2.390548835100e-02       2.447199571723e+04 
       2.403929509132e-02       2.440909943521e+04 
       2.417322635095e-02       2.434554402771e+04 
       2.430728477217e-02       2.428142631144e+04 
       2.444147306165e-02       2.421666946927e+04 
       2.457579399219e-02       2.415134641220e+04 
       2.471025040442e-02       2.408548529041e+04 
       2.484484520861e-02       2.401906817347e+04 
       2.497958138653e-02       2.395210614058e+04 
       2.511446199337e-02       2.388476844804e+04 
       2.524949015970e-02       2.381663361730e+04 
       2.538466909356e-02       2.374814773249e+04 
       2.552000208254e-02       2.367919610272e+04 
       2.565549249596e-02       2.360981657697e+04 
       2.579114378719e-02       2.353995265152e+04 
       2.592695949593e-02       2.346960187418e+04 
       2.606294325065e-02       2.339879820384e+04 
       2.619909877110e-02       2.332759977376e+04 
       2.633542987090e-02       2.325614735901e+04 
       2.647194046021e-02       2.318405424609e+04 
       2.660863454854e-02       2.311170333716e+04 
       2.674551624756e-02       2.303896457761e+04 
       2.688258977414e-02       2.296583605946e+04 
       2.701985945341e-02       2.289241339018e+04 
       2.715732972196e-02       2.281858720898e+04 
       2.729500513111e-02       2.274449070546e+04 
       2.743289035043e-02       2.267009500250e+04 
       2.757099017121e-02       2.259532837075e+04 
       2.770930951021e-02       2.252028087797e+04 
       2.784785341348e-02       2.244496921802e+04 
       2.798662706029e-02       2.236937554319e+04 
       2.812563576733e-02       2.229349712768e+04 
       2.826488499293e-02       2.221744127032e+04 
       2.840438034155e-02       2.214109089590e+04 
       2.854412756837e-02       2.206444458232e+04 
       2.868413258412e-02       2.198768902508e+04 
       2.882440146005e-02       2.191064910775e+04 
       2.896494043314e-02       2.183342021771e+04 
       2.910575591146e-02       2.175595222121e+04 
       2.924685447984e-02       2.167835877395e+04 
       2.938824290569e-02       2.160057207509e+04 
       2.952992814506e-02       2.152261206718e+04 
       2.967191734903e-02       2.144441832671e+04 
       2.981421787025e-02       2.136614396485e+04 
       2.995683726987e-02       2.128766687854e+04 
       3.009978332469e-02       2.120904602921e+04 
       3.024306403464e-02       2.113036724170e+04 
       3.038668763056e-02       2.105156048153e+04 
       3.053066258240e-02       2.097254941698e+04 
       3.067499760764e-02       2.089350970307e+04 
       3.081970168023e-02       2.081432147412e+04 
       3.096478403981e-02       2.073503255311e+04 
       3.111025420145e-02       2.065571657127e+04 
       3.125612196574e-02       2.057629761402e+04 
       3.140239742941e-02       2.049665093517e+04 
       3.154909099640e-02       2.041715543437e+04 
       3.169621338949e-02       2.033747692773e+04 
       3.184377566244e-02       2.025780254396e+04 
       3.199178921272e-02       2.017796888255e+04 
       3.214026579485e-02       2.009818164917e+04 
       3.228921753445e-02       2.001833405106e+04 
       3.243865694286e-02       1.993850085960e+04 
       3.258859693257e-02       1.985853293591e+04 
       3.273905083344e-02       1.977860524150e+04 
       3.289003240964e-02       1.969856636537e+04 
       3.304155587758e-02       1.961861657187e+04 
       3.319363592466e-02       1.953867490152e+04 
       3.334628772906e-02       1.945863447696e+04 
       3.349952698058e-02       1.937858683486e+04 
       3.365336990249e-02       1.929863664490e+04 
       3.380783327471e-02       1.921860761593e+04 
       3.396293445813e-02       1.913856065822e+04 
       3.411869142031e-02       1.905864942073e+04 
       3.427512276259e-02       1.897863177844e+04 
       3.443224774876e-02       1.889865685854e+04 
       3.459008633536e-02       1.881878695318e+04 
       3.474865920362e-02       1.873879183789e+04 
       3.490798779340e-02       1.865895899534e+04 
       3.506809433905e-02       1.857908461444e+04 
       3.522900190736e-02       1.849923566195e+04 
       3.539073443791e-02       1.841941042933e+04 
       3.555331678574e-02       1.833965540410e+04 
       3.571677476678e-02       1.825991189422e+04 
       3.588113520600e-02       1.818023129289e+04 
       3.604642598866e-02       1.810049537409e+04 
       3.621267611484e-02       1.802094265238e+04 
       3.637991575745e-02       1.794132340036e+04 
       3.654817632410e-02       1.786178852886e+04 
       3.671749052301e-02       1.778228691522e+04 
       3.688789243340e-02       1.770290440850e+04 
       3.705941758069e-02       1.762336789575e+04 
       3.723210301680e-02       1.754397278903e+04 
       3.740598740618e-02       1.746459853809e+04 
       3.758111111783e-02       1.738535330548e+04 
       3.775751632403e-02       1.730601837947e+04 
       3.793524710623e-02       1.722673308101e+04 
       3.811434956870e-02       1.714757295238e+04 
       3.829487196082e-02       1.706837727263e+04 
       3.847686480858e-02       1.698922842348e+04 
       3.866038105627e-02       1.691009336951e+04 
       3.884547621928e-02       1.683098344112e+04 
       3.903220854898e-02       1.675193423744e+04 
       3.922063921103e-02       1.667283871419e+04 
       3.941083247821e-02       1.659379559961e+04 
       3.960285593935e-02       1.651471435689e+04 
       3.979678072600e-02       1.643570803539e+04 
       3.999268175844e-02       1.635664276935e+04 
       4.019063801341e-02       1.627762619076e+04 
       4.039073281548e-02       1.619856040335e+04 
       4.059305415483e-02       1.611947933339e+04 
       4.079769503422e-02       1.604039532492e+04 
       4.100475384851e-02       1.596124251338e+04 
       4.121433480028e-02       1.588207976553e+04 
       4.142654835573e-02       1.580287895367e+04 
       4.164151174566e-02       1.572358747754e+04 
       4.185934951690e-02       1.564426627893e+04 
       4.208019414017e-02       1.556484848360e+04 
       4.230418668160e-02       1.548537522976e+04 
       4.253147754575e-02       1.540577793400e+04 
       4.276222729946e-02       1.532607593531e+04 
       4.299660758703e-02       1.524627884824e+04 
       4.323480214917e-02       1.516625910771e+04 
       4.347700795965e-02       1.508617713052e+04 
       4.372343649631e-02       1.500589293597e+04 
       4.397431516545e-02       1.492542702895e+04 
       4.422988890203e-02       1.484481083819e+04 
       4.449042197184e-02       1.476389990249e+04 
       4.475620000645e-02       1.468276682331e+04 
       4.502753230701e-02       1.460136469979e+04 
       4.530475446011e-02       1.451975361791e+04 
       4.558823131619e-02       1.443773196775e+04 
       4.587836039146e-02       1.435538638195e+04 
       4.617557576556e-02       1.427265734496e+04 
       4.648035256198e-02       1.418955811109e+04 
       4.679321211609e-02       1.410597676476e+04 
       4.711472795746e-02       1.402190782590e+04 
       4.744553276042e-02       1.393731423946e+04 
       4.778632645086e-02       1.385212064139e+04 
       4.813788569931e-02       1.376633738282e+04 
       4.850107508359e-02       1.367973466685e+04 
       4.887686027110e-02       1.359251117233e+04 
       4.926632365536e-02       1.350440660686e+04 
       4.967068298830e-02       1.341538510836e+04 
       5.009131368619e-02       1.332525038633e+04 
       5.052977566070e-02       1.323405565321e+04 
       5.098784574743e-02       1.314157378321e+04 
       5.146755708620e-02       1.304769587031e+04 
       5.197124716478e-02       1.295227611359e+04 
       5.250161668691e-02       1.285504959875e+04 
       5.306180198290e-02       1.275585266591e+04 
       5.365546435363e-02       1.265431613441e+04 
       5.428690051164e-02       1.255011687104e+04 
       5.496117909081e-02       1.244285698504e+04 
       5.568430885770e-02       1.233213968035e+04 
       5.646344436477e-02       1.221696381204e+04 
       5.730713347390e-02       1.209638473332e+04 
       5.822560673139e-02       1.196982538294e+04 
       5.923109774848e-02       1.183527321093e+04 
       6.033816081082e-02       1.169090998897e+04 
       6.156390783279e-02       1.153399419861e+04 
