# dimensionless total [l(l+1)/2pi] C_l's
# for l=2 to 3000, i.e. number of multipoles equal to 2999
#
# -> if you prefer output in CAMB/HealPix/LensPix units/order, set 'format' to 'camb' in input file
# -> if you don't want to see such a header, set 'headers' to 'no' in input file
# -> for CMB lensing (phi), these are C_l^phi-phi for the lensing potential.
#    Remember the conversion factors:
#    C_l^dd (deflection) = l(l+1) C_l^phi-phi
#    C_l^gg (shear/convergence) = 1/4 (l(l+1))^2 C_l^phi-phi
#
# 1:l     2:TT                     3:EE                     4:TE                     5:BB                     6:phiphi                 7:TPhi                   8:Ephi               
    2       1.514246840008e-10       1.482190948008e-14       7.092972757237e-13       0.000000000000e+00       8.690158887834e-09       4.899332648432e-10      -3.379845993226e-12 
    3       1.429447085991e-10       3.444074774006e-14       1.041774298691e-12       0.000000000000e+00       5.337262113499e-09       3.522942882322e-10      -3.409066953568e-12 
    4       1.337427435340e-10       5.579816898031e-14       1.231393551354e-12       0.000000000000e+00       3.714098788217e-09       2.708278158126e-10      -3.184526669675e-12 
    5       1.257016073389e-10       7.390175632835e-14       1.306677542726e-12       0.000000000000e+00       2.774655764713e-09       2.172406339071e-10      -2.869933427272e-12 
    6       1.190447205088e-10       8.515739658866e-14       1.300466625053e-12       0.000000000000e+00       2.168915872338e-09       1.793895698400e-10      -2.514419229130e-12 
    7       1.136413463135e-10       8.807453016004e-14       1.241674676854e-12       0.000000000000e+00       1.750877458593e-09       1.512663673607e-10      -2.146205180241e-12 
    8       1.093536519224e-10       8.314607160067e-14       1.150914687691e-12       0.000000000000e+00       1.447604601917e-09       1.295889919625e-10      -1.783569639675e-12 
    9       1.060217010015e-10       7.230598043086e-14       1.042278181830e-12       0.000000000000e+00       1.219074409324e-09       1.124259107366e-10      -1.439366863247e-12 
   10       1.034996975694e-10       5.818761492386e-14       9.246968051041e-13       0.000000000000e+00       1.041872567067e-09       9.853009822401e-11      -1.122605437044e-12 
   11       1.017230342369e-10       4.341838841645e-14       8.035191669984e-13       0.000000000000e+00       8.784634937397e-10       8.703264104806e-11      -8.426371546971e-13 
   12       1.005193753160e-10       3.010115541495e-14       6.826951422871e-13       0.000000000000e+00       7.677464371786e-10       7.721038544455e-11      -5.980206634052e-13 
   13       9.982813012258e-11       1.954342391766e-14       5.656958874545e-13       0.000000000000e+00       6.768375949064e-10       6.909619334669e-11      -3.883068499583e-13 
   14       9.958091427189e-11       1.222316965077e-14       4.558989902177e-13       0.000000000000e+00       6.011870944451e-10       6.201428622182e-11      -2.184353716828e-13 
   15       9.968368338003e-11       7.932400925710e-15       3.567102564251e-13       0.000000000000e+00       5.374962582746e-10       5.600955440790e-11      -8.382237261148e-14 
   16       1.000576535696e-10       6.018104374334e-15       2.710559846043e-13       0.000000000000e+00       4.833340361037e-10       5.082410588716e-11       1.704632585457e-14 
   17       1.006868217072e-10       5.643020744516e-15       2.013465738716e-13       0.000000000000e+00       4.368636111422e-10       4.630275749491e-11       8.695950477637e-14 
   18       1.014634985063e-10       5.973385482060e-15       1.492780742297e-13       0.000000000000e+00       3.965229700765e-10       4.235425323912e-11       1.298619572122e-13 
   19       1.023831370756e-10       6.500122811043e-15       1.154605336533e-13       0.000000000000e+00       3.616742186754e-10       3.892533412659e-11       1.489825654270e-13 
   20       1.034248827573e-10       6.762910814093e-15       9.857072597707e-14       0.000000000000e+00       3.309762504393e-10       3.588584487722e-11       1.496069374734e-13 
   21       1.045659789340e-10       6.681682034646e-15       9.711828599681e-14       0.000000000000e+00       3.039483696058e-10       3.318784868184e-11       1.354876829572e-13 
   22       1.057548278307e-10       6.336873954975e-15       1.084021471113e-13       0.000000000000e+00       2.799454040808e-10       3.076884715866e-11       1.109491992893e-13 
   23       1.069984214989e-10       5.894179182769e-15       1.295070273997e-13       0.000000000000e+00       2.586384480184e-10       2.861246660781e-11       7.941234687835e-14 
   24       1.083015077460e-10       5.563818848790e-15       1.567252758811e-13       0.000000000000e+00       2.395360575095e-10       2.668922978989e-11       4.450956804294e-14 
   25       1.096600274487e-10       5.471886143280e-15       1.870810888258e-13       0.000000000000e+00       2.224142420721e-10       2.497438507696e-11       8.906321408380e-15 
   26       1.110532240387e-10       5.699326197214e-15       2.174889210667e-13       0.000000000000e+00       2.069637512117e-10       2.342690167231e-11      -2.488830198178e-14 
   27       1.124765940291e-10       6.199518244525e-15       2.456427602796e-13       0.000000000000e+00       1.929997277625e-10       2.202418855372e-11      -5.511552457337e-14 
   28       1.139226978969e-10       6.865759449859e-15       2.694775737347e-13       0.000000000000e+00       1.802819273390e-10       2.073992226320e-11      -8.034400614547e-14 
   29       1.154001640741e-10       7.584153003276e-15       2.879539646246e-13       0.000000000000e+00       1.687457476157e-10       1.956830699787e-11      -9.990191975008e-14 
   30       1.169124313941e-10       8.212766870565e-15       3.003903875533e-13       0.000000000000e+00       1.582676790564e-10       1.849861055500e-11      -1.135030190407e-13 
   31       1.184533953945e-10       8.606253261332e-15       3.063166700698e-13       0.000000000000e+00       1.486344259207e-10       1.751028513010e-11      -1.211254146835e-13 
   32       1.200252843953e-10       8.736139154815e-15       3.059187202662e-13       0.000000000000e+00       1.397964511037e-10       1.659496912346e-11      -1.231000216680e-13 
   33       1.216250764120e-10       8.616035030238e-15       2.998035594064e-13       0.000000000000e+00       1.316914276653e-10       1.574076269298e-11      -1.201063006321e-13 
   34       1.232434618033e-10       8.279513948008e-15       2.888473845390e-13       0.000000000000e+00       1.242061421892e-10       1.493178411403e-11      -1.130790166365e-13 
   35       1.248817790220e-10       7.807365029582e-15       2.739674186848e-13       0.000000000000e+00       1.173024223525e-10       1.416986227896e-11      -1.028567838906e-13 
   36       1.265394533822e-10       7.312687083956e-15       2.563097096178e-13       0.000000000000e+00       1.109250273338e-10       1.345953517046e-11      -9.044923617760e-14 
   37       1.282116444313e-10       6.912410739626e-15       2.371604251461e-13       0.000000000000e+00       1.049911282064e-10       1.280210382767e-11      -7.699213725959e-14 
   38       1.298991762728e-10       6.647872921561e-15       2.173615277960e-13       0.000000000000e+00       9.948549170694e-11       1.219610258156e-11      -6.320660603053e-14 
   39       1.316008310080e-10       6.538943138795e-15       1.977223624067e-13       0.000000000000e+00       9.439074101150e-11       1.163637099027e-11      -4.978045793710e-14 
   40       1.333100035569e-10       6.605124090863e-15       1.791849670020e-13       0.000000000000e+00       8.965839989188e-11       1.111347155636e-11      -3.752151865747e-14 
   41       1.350181371771e-10       6.858899618995e-15       1.626470836790e-13       0.000000000000e+00       8.522580147407e-11       1.061681412136e-11      -2.720983175520e-14 
   42       1.367276648726e-10       7.283493820694e-15       1.483454142559e-13       0.000000000000e+00       8.107995744032e-11       1.014610879933e-11      -1.908053358552e-14 
   43       1.384423777769e-10       7.847647970214e-15       1.362831343548e-13       0.000000000000e+00       7.720991329198e-11       9.703041665406e-12      -1.318375888079e-14 
   44       1.401635580398e-10       8.510944150369e-15       1.263907337534e-13       0.000000000000e+00       7.358758108237e-11       9.288000986914e-12      -9.520577789277e-15 
   45       1.418912088092e-10       9.232677921668e-15       1.184867301375e-13       0.000000000000e+00       7.017778437585e-11       8.900344638111e-12      -8.021036360377e-15 
   46       1.436288040675e-10       1.000300828775e-14       1.121595765265e-13       0.000000000000e+00       6.697518906434e-11       8.539573448457e-12      -8.479994397571e-15 
   47       1.453795102550e-10       1.082013227559e-14       1.068405075728e-13       0.000000000000e+00       6.397609277281e-11       8.204309575710e-12      -1.059521554645e-14 
   48       1.471446428142e-10       1.168160441097e-14       1.018263480461e-13       0.000000000000e+00       6.116728535080e-11       7.891850098520e-12      -1.397866096156e-14 
   49       1.489234885180e-10       1.258430029662e-14       9.627174265154e-14       0.000000000000e+00       5.852534169399e-11       7.598072132045e-12      -1.815140738253e-14 
   50       1.507147172089e-10       1.352263103208e-14       8.931576664168e-14       0.000000000000e+00       5.602368232411e-11       7.318550369809e-12      -2.261171382142e-14 
   51       1.525214809719e-10       1.448269958634e-14       8.052029986549e-14       0.000000000000e+00       5.365765516783e-11       7.052487454408e-12      -2.707279302802e-14 
   52       1.543473919584e-10       1.544649528117e-14       6.953721316482e-14       0.000000000000e+00       5.142503954209e-11       6.799686448035e-12      -3.128079598412e-14 
   53       1.561949535122e-10       1.639338839723e-14       5.598297547594e-14       0.000000000000e+00       4.931853990271e-11       6.559394718555e-12      -3.494570343041e-14 
   54       1.580654572936e-10       1.730001143885e-14       3.943720745033e-14       0.000000000000e+00       4.732544420760e-11       6.330266110470e-12      -3.773968623030e-14 
   55       1.599594356345e-10       1.814673298791e-14       1.954948557556e-14       0.000000000000e+00       4.543150519553e-11       6.110801491348e-12      -3.937237412540e-14 
   56       1.618783858753e-10       1.893923458009e-14      -3.605861649020e-15       0.000000000000e+00       4.363449598051e-11       5.900885212894e-12      -3.984231462526e-14 
   57       1.638232941950e-10       1.969208601383e-14      -2.979894434797e-14       0.000000000000e+00       4.193342355441e-11       5.700564079283e-12      -3.924510995246e-14 
   58       1.657940384360e-10       2.042275749857e-14      -5.874212871109e-14       0.000000000000e+00       4.032442765851e-11       5.509583639725e-12      -3.770330896136e-14 
   59       1.677893068607e-10       2.115175777361e-14      -9.008726582072e-14       0.000000000000e+00       3.880060367587e-11       5.327368997447e-12      -3.536776393265e-14 
   60       1.698065169081e-10       2.190277222704e-14      -1.234229204790e-13       0.000000000000e+00       3.735182552373e-11       5.153005618669e-12      -3.241898736795e-14 
   61       1.718428436179e-10       2.269808068627e-14      -1.583336256734e-13       0.000000000000e+00       3.596755903399e-11       4.985533480779e-12      -2.904867697363e-14 
   62       1.738987584508e-10       2.354329643262e-14      -1.945994573383e-13       0.000000000000e+00       3.464644070011e-11       4.824950086260e-12      -2.539637523686e-14 
   63       1.759751442413e-10       2.443943119987e-14      -2.320365426648e-13       0.000000000000e+00       3.338854448705e-11       4.671399555790e-12      -2.160093536432e-14 
   64       1.780722105001e-10       2.538730180806e-14      -2.704382001693e-13       0.000000000000e+00       3.219250047477e-11       4.524870089764e-12      -1.781981165489e-14 
   65       1.801894473798e-10       2.638751850995e-14      -3.095741365482e-13       0.000000000000e+00       3.105541263658e-11       4.385184719293e-12      -1.422978704586e-14 
   66       1.823255796402e-10       2.744047333751e-14      -3.491896435311e-13       0.000000000000e+00       2.997277661741e-11       4.251992057189e-12      -1.102770065914e-14 
   67       1.844785206135e-10       2.854632844839e-14      -3.890047947352e-13       0.000000000000e+00       2.893839751220e-11       4.124757048965e-12      -8.431175347481e-15 
   68       1.866462129344e-10       2.970430406526e-14      -4.287897777257e-13       0.000000000000e+00       2.794604508789e-11       4.002914851263e-12      -6.626050284100e-15 
   69       1.888294514487e-10       3.091040079931e-14      -4.686104106568e-13       0.000000000000e+00       2.699499270311e-11       3.886389348093e-12      -5.594683649502e-15 
   70       1.910295522292e-10       3.215919275414e-14      -5.086311595325e-13       0.000000000000e+00       2.608545816959e-11       3.775163567054e-12      -5.254006696137e-15 
   71       1.932474934861e-10       3.344445806138e-14      -5.490445282273e-13       0.000000000000e+00       2.521692850344e-11       3.669120862076e-12      -5.505116363462e-15 
   72       1.954838922109e-10       3.475914931394e-14      -5.900722025325e-13       0.000000000000e+00       2.438812213934e-11       3.568039836473e-12      -6.232639781775e-15 
   73       1.977389808217e-10       3.609536399925e-14      -6.319661942014e-13       0.000000000000e+00       2.359695114482e-11       3.471589265988e-12      -7.304098776055e-15 
   74       2.000125838078e-10       3.744431493250e-14      -6.750099849959e-13       0.000000000000e+00       2.284048343444e-11       3.379323021850e-12      -8.569274369798e-15 
   75       2.023040943748e-10       3.879630068989e-14      -7.195196707316e-13       0.000000000000e+00       2.211490498406e-11       3.290674993816e-12      -9.859571288857e-15 
   76       2.046129306957e-10       4.014279889633e-14      -7.657774600459e-13       0.000000000000e+00       2.141646690623e-11       3.205090935040e-12      -1.101792705403e-14 
   77       2.069400523444e-10       4.148325213879e-14      -8.138156414966e-13       0.000000000000e+00       2.074460958743e-11       3.122462976182e-12      -1.199624069085e-14 
   78       2.092866792444e-10       4.281947152931e-14      -8.635951172942e-13       0.000000000000e+00       2.009934225009e-11       3.042765491382e-12      -1.277463859047e-14 
   79       2.116538232924e-10       4.415363736732e-14      -9.150693145833e-13       0.000000000000e+00       1.948029132593e-11       2.965922973213e-12      -1.333249705907e-14 
   80       2.140422748383e-10       4.548831310370e-14      -9.681839423671e-13       0.000000000000e+00       1.888668286558e-11       2.891807763427e-12      -1.364843316328e-14 
   81       2.164525891645e-10       4.682645930489e-14      -1.022876748432e-12       0.000000000000e+00       1.831732494823e-11       2.820237783697e-12      -1.370029557553e-14 
   82       2.188850729653e-10       4.817144761700e-14      -1.079077276273e-12       0.000000000000e+00       1.777059009115e-11       2.750974266361e-12      -1.346515541943e-14 
   83       2.213397708268e-10       4.952707472990e-14      -1.136706622018e-12       0.000000000000e+00       1.724439765933e-11       2.683719485165e-12      -1.291929711511e-14 
   84       2.238166577831e-10       5.089663589383e-14      -1.195670761748e-12       0.000000000000e+00       1.673671967485e-11       2.618197250787e-12      -1.205092396754e-14 
   85       2.263162832794e-10       5.227993840831e-14      -1.255839794934e-12       0.000000000000e+00       1.624723312085e-11       2.554414700647e-12      -1.090071509630e-14 
   86       2.288392096713e-10       5.367581633349e-14      -1.317064798339e-12       0.000000000000e+00       1.577591057696e-11       2.492439949520e-12      -9.528006461840e-15 
   87       2.313858057318e-10       5.508302510293e-14      -1.379183603712e-12       0.000000000000e+00       1.532251250982e-11       2.432322318128e-12      -7.998875440440e-15 
   88       2.339562365935e-10       5.650023968185e-14      -1.442020446655e-12       0.000000000000e+00       1.488657847927e-11       2.374091454885e-12      -6.386345362715e-15 
   89       2.365504536923e-10       5.792605272544e-14      -1.505385615488e-12       0.000000000000e+00       1.446741834458e-11       2.317756457650e-12      -4.770590052151e-15 
   90       2.391681847100e-10       5.935897273705e-14      -1.569075100108e-12       0.000000000000e+00       1.406410347072e-11       2.263304995473e-12      -3.239138363633e-15 
   91       2.418089235174e-10       6.079742222648e-14      -1.632870240860e-12       0.000000000000e+00       1.367545793456e-11       2.210702430341e-12      -1.887078721972e-15 
   92       2.444719201176e-10       6.223973586823e-14      -1.696537377397e-12       0.000000000000e+00       1.330004973112e-11       2.159890938927e-12      -8.172636604358e-16 
   93       2.471564933149e-10       6.368420046657e-14      -1.759873711788e-12       0.000000000000e+00       1.293653060487e-11       2.110804569317e-12      -1.161876623702e-16 
   94       2.498630443593e-10       6.512918572677e-14      -1.822853550962e-12       0.000000000000e+00       1.258473310956e-11       2.063418909207e-12       2.229736291619e-16 
   95       2.525921778693e-10       6.657302983819e-14      -1.885503512264e-12       0.000000000000e+00       1.224472305525e-11       2.017707298762e-12       2.346532168090e-16 
   96       2.553443871380e-10       6.801399816905e-14      -1.947858548445e-12       0.000000000000e+00       1.191646163030e-11       1.973624910562e-12      -4.227494480924e-17 
   97       2.581200485063e-10       6.945028199854e-14      -2.009962230901e-12       0.000000000000e+00       1.159980139316e-11       1.931108090088e-12      -5.643665590523e-16 
   98       2.609194157355e-10       7.087999724900e-14      -2.071867032908e-12       0.000000000000e+00       1.129448226409e-11       1.890073696203e-12      -1.283477597210e-15 
   99       2.637426143810e-10       7.230118321802e-14      -2.133634612869e-12       0.000000000000e+00       1.100012751695e-11       1.850418441639e-12      -2.146634908451e-15 
  100       2.665896361646e-10       7.371180131057e-14      -2.195336097545e-12       0.000000000000e+00       1.071623977095e-11       1.812018233479e-12      -3.095906829776e-15 
  101       2.694603333482e-10       7.510973377116e-14      -2.257052365302e-12       0.000000000000e+00       1.044219698235e-11       1.774727513646e-12      -4.068273795967e-15 
  102       2.723544131066e-10       7.649278241594e-14      -2.318874329346e-12       0.000000000000e+00       1.017724843630e-11       1.738378599384e-12      -4.995498949538e-15 
  103       2.752714319003e-10       7.785866736484e-14      -2.380903220964e-12       0.000000000000e+00       9.920510738525e-12       1.702781023741e-12      -5.803998750684e-15 
  104       2.782108631416e-10       7.920528723921e-14      -2.443217907663e-12       0.000000000000e+00       9.671168102523e-12       1.667765934712e-12      -6.430893139814e-15 
  105       2.811723227219e-10       8.053154251588e-14      -2.505771209555e-12       0.000000000000e+00       9.429112657671e-12       1.633327543767e-12      -6.874903967173e-15 
  106       2.841553636008e-10       8.183662155036e-14      -2.568480039668e-12       0.000000000000e+00       9.194383567555e-12       1.599499644380e-12      -7.152122987220e-15 
  107       2.871594004715e-10       8.311975062936e-14      -2.631257040247e-12       0.000000000000e+00       8.966968716579e-12       1.566312097283e-12      -7.280494113898e-15 
