# dimensionless total [l(l+1)/2pi] C_l's
# for l=2 to 3000, i.e. number of multipoles equal to 2999
#
# -> if you prefer output in CAMB/HealPix/LensPix units/order, set 'format' to 'camb' in input file
# -> if you don't want to see such a header, set 'headers' to 'no' in input file
# -> for CMB lensing (phi), these are C_l^phi-phi for the lensing potential.
#    Remember the conversion factors:
#    C_l^dd (deflection) = l(l+1) C_l^phi-phi
#    C_l^gg (shear/convergence) = 1/4 (l(l+1))^2 C_l^phi-phi
#
# 1:l     2:TT                     3:EE                     4:TE                     5:BB                     6:phiphi                 7:TPhi                   8:Ephi               
    2       1.489562692483e-10       1.081454478121e-14       5.887052511660e-13       0.000000000000e+00       8.663531109934e-09       4.867012196335e-10      -2.962702883240e-12 
    3       1.402510771256e-10       2.197951990458e-14       8.082942834197e-13       0.000000000000e+00       5.347726350569e-09       3.484514987945e-10      -2.831541055617e-12 
    4       1.312707014482e-10       3.106105058857e-14       9.015047033004e-13       0.000000000000e+00       3.719316535062e-09       2.665536198021e-10      -2.491005064217e-12 
    5       1.237848611862e-10       3.547701369084e-14       9.063904117713e-13       0.000000000000e+00       2.776092185845e-09       2.126993228807e-10      -2.091108523436e-12 
    6       1.179270265090e-10       3.468338545519e-14       8.556901606944e-13       0.000000000000e+00       2.169168475148e-09       1.746801705444e-10      -1.681065205449e-12 
    7       1.134668437664e-10       2.981756384630e-14       7.742089873969e-13       0.000000000000e+00       1.750688397807e-09       1.464489155003e-10      -1.289498718662e-12 
    8       1.101989848651e-10       2.284493596136e-14       6.780825522373e-13       0.000000000000e+00       1.447571570086e-09       1.247297958936e-10      -9.342195159952e-13 
    9       1.079109857745e-10       1.573275028673e-14       5.778534749122e-13       0.000000000000e+00       1.219651409748e-09       1.076086422307e-10      -6.263543296382e-13 
   10       1.064100770682e-10       9.884237315804e-15       4.806156645322e-13       0.000000000000e+00       1.043008149587e-09       9.382434844673e-11      -3.717475707016e-13 
   11       1.055863313246e-10       5.924551927090e-15       3.913570389882e-13       0.000000000000e+00       8.787392389251e-10       8.265702482542e-11      -1.733879074048e-13 
   12       1.052543671719e-10       3.788785453979e-15       3.138383550959e-13       0.000000000000e+00       7.679899153436e-10       7.302420744304e-11      -2.687724046184e-14 
   13       1.053591584115e-10       2.985038881675e-15       2.507199591350e-13       0.000000000000e+00       6.770543184635e-10       6.515046301645e-11       7.300782326810e-14 
   14       1.057824696421e-10       2.893236639585e-15       2.035090863453e-13       0.000000000000e+00       6.013810429267e-10       5.833601265487e-11       1.303249308687e-13 
   15       1.064851245728e-10       2.995752487888e-15       1.724220223839e-13       0.000000000000e+00       5.376707382607e-10       5.262613013088e-11       1.536645285725e-13 
   16       1.073815045467e-10       2.992375001861e-15       1.562708384620e-13       0.000000000000e+00       4.834917955458e-10       4.774272917391e-11       1.504037853395e-13 
   17       1.084575308062e-10       2.804392663030e-15       1.527440326773e-13       0.000000000000e+00       4.370069966232e-10       4.351648451777e-11       1.280603377964e-13 
   18       1.096370169982e-10       2.510145248609e-15       1.588855975994e-13       0.000000000000e+00       3.966535209125e-10       3.985052835209e-11       9.398804354320e-14 
   19       1.109286654998e-10       2.225908120282e-15       1.719220973496e-13       0.000000000000e+00       3.617941233427e-10       3.668236072230e-11       5.378490281420e-14 
   20       1.123210389903e-10       2.076327097247e-15       1.882305705656e-13       0.000000000000e+00       3.310866054447e-10       3.387451075242e-11       1.346781801042e-14 
   21       1.138062093854e-10       2.088341217092e-15       2.054177265422e-13       0.000000000000e+00       3.040501243715e-10       3.137240743105e-11      -2.322704645949e-14 
   22       1.153484410590e-10       2.238904943185e-15       2.212536672732e-13       0.000000000000e+00       2.800395271379e-10       2.911081746829e-11      -5.337283597476e-14 
   23       1.169554942691e-10       2.459251709721e-15       2.344246795564e-13       0.000000000000e+00       2.587258028515e-10       2.707703267554e-11      -7.548276250064e-14 
   24       1.186269811405e-10       2.658233039793e-15       2.439796954943e-13       0.000000000000e+00       2.396172843338e-10       2.524958420139e-11      -8.892629976694e-14 
   25       1.203567875696e-10       2.789480250529e-15       2.497224747490e-13       0.000000000000e+00       2.224899241555e-10       2.360681889644e-11      -9.399691328306e-14 
   26       1.221227098457e-10       2.828640201758e-15       2.518637759813e-13       0.000000000000e+00       2.070344114807e-10       2.211112288668e-11      -9.174900466307e-14 
   27       1.239211538456e-10       2.805988699654e-15       2.509305875309e-13       0.000000000000e+00       1.930658320739e-10       2.074436177449e-11      -8.369923502307e-14 
   28       1.257453990540e-10       2.773409012214e-15       2.476841453382e-13       0.000000000000e+00       1.803438562594e-10       1.948594258771e-11      -7.180008016698e-14 
   29       1.276017121497e-10       2.767439387708e-15       2.428366562390e-13       0.000000000000e+00       1.688038631501e-10       1.833346492995e-11      -5.756851159327e-14 
   30       1.294890580124e-10       2.825725070564e-15       2.372453983723e-13       0.000000000000e+00       1.583223095982e-10       1.727999115103e-11      -4.272584491822e-14 
   31       1.313965139148e-10       2.983727011578e-15       2.318506835939e-13       0.000000000000e+00       1.486858378780e-10       1.630939185583e-11      -2.915154895310e-14 
   32       1.333261460839e-10       3.238476873715e-15       2.271551216585e-13       0.000000000000e+00       1.398448993257e-10       1.541498189898e-11      -1.774434254247e-14 
   33       1.352762240840e-10       3.570593552523e-15       2.235547098224e-13       0.000000000000e+00       1.317371508028e-10       1.458599426954e-11      -9.146567364854e-15 
   34       1.372389737894e-10       3.957880533414e-15       2.213620433838e-13       0.000000000000e+00       1.242493455533e-10       1.380773186382e-11      -3.883139092490e-15 
   35       1.392178314261e-10       4.392239792244e-15       2.204214892858e-13       0.000000000000e+00       1.173432980227e-10       1.308219847270e-11      -1.825449018592e-15 
   36       1.412146707697e-10       4.868223324950e-15       2.203447869112e-13       0.000000000000e+00       1.109637466052e-10       1.241380203675e-11      -2.519264278868e-15 
   37       1.432274795893e-10       5.379545819955e-15       2.206408401134e-13       0.000000000000e+00       1.050278324484e-10       1.180345221995e-11      -5.364917012329e-15 
   38       1.452606789649e-10       5.922896173204e-15       2.208520826344e-13       0.000000000000e+00       9.952031743865e-11       1.124821741924e-11      -9.805764095409e-15 
   39       1.473171661153e-10       6.495246453109e-15       2.204478284594e-13       0.000000000000e+00       9.442382004496e-11       1.074092075362e-11      -1.518027476475e-14 
   40       1.493948767714e-10       7.092768864249e-15       2.187777167375e-13       0.000000000000e+00       8.968984916845e-11       1.026975114286e-11      -2.065729882773e-14 
   41       1.514894061651e-10       7.711109601223e-15       2.151831603625e-13       0.000000000000e+00       8.525571842850e-11       9.821752741429e-12      -2.538670879981e-14 
   42       1.536041669191e-10       8.346435173519e-15       2.093941214123e-13       0.000000000000e+00       8.110843626186e-11       9.395561401138e-12      -2.903702418359e-14 
   43       1.557426495441e-10       8.994644393218e-15       2.012483392824e-13       0.000000000000e+00       7.723704558513e-11       8.992182810630e-12      -3.141409418987e-14 
   44       1.579052534177e-10       9.651048799923e-15       1.905835850195e-13       0.000000000000e+00       7.361345024765e-11       8.611378162487e-12      -3.231445184493e-14 
   45       1.600905478435e-10       1.031247626980e-14       1.772931995197e-13       0.000000000000e+00       7.020246315101e-11       8.252088155298e-12      -3.160120343229e-14 
   46       1.623002396414e-10       1.098439292564e-14       1.615115229276e-13       0.000000000000e+00       6.699874874175e-11       7.914113991438e-12      -2.945862384815e-14 
   47       1.645351602270e-10       1.167586626751e-14       1.434846122547e-13       0.000000000000e+00       6.399860346042e-11       7.596752815505e-12      -2.621376761216e-14 
   48       1.667936061419e-10       1.239771465697e-14       1.235234329848e-13       0.000000000000e+00       6.118881268362e-11       7.298231278018e-12      -2.227154860436e-14 
   49       1.690711178026e-10       1.316260401737e-14       1.020074514482e-13       0.000000000000e+00       5.854594330047e-11       7.015626842316e-12      -1.811916180148e-14 
   50       1.713626302658e-10       1.398202929069e-14       7.931007628359e-14       0.000000000000e+00       5.604340671361e-11       6.745777192150e-12      -1.424258744458e-14 
   51       1.736701270679e-10       1.485606852958e-14       5.554278978485e-14       0.000000000000e+00       5.367654922486e-11       6.488482032875e-12      -1.083912644752e-14 
   52       1.759966814887e-10       1.578101482181e-14       3.074777353976e-14       0.000000000000e+00       5.144314932627e-11       6.244034357154e-12      -8.034479216912e-15 
   53       1.783441590898e-10       1.675219974482e-14       4.969905837520e-15       0.000000000000e+00       4.933590886982e-11       6.012276873132e-12      -5.964121119004e-15 
   54       1.807131080887e-10       1.776394346631e-14      -2.174332364711e-14       0.000000000000e+00       4.734211131099e-11       5.792569810201e-12      -4.773586918657e-15 
   55       1.831033946594e-10       1.881064866218e-14      -4.937341079963e-14       0.000000000000e+00       4.544750438244e-11       5.584054722425e-12      -4.564266258420e-15 
   56       1.855165447943e-10       1.989051481596e-14      -7.803462429125e-14       0.000000000000e+00       4.364986055290e-11       5.386596395760e-12      -5.214369884162e-15 
   57       1.879537921926e-10       2.100265922837e-14      -1.078961507657e-13       0.000000000000e+00       4.194818666414e-11       5.200018540065e-12      -6.513985803526e-15 
   58       1.904153054547e-10       2.214604882339e-14      -1.391541266198e-13       0.000000000000e+00       4.033862133448e-11       5.023808080042e-12      -8.213873052109e-15 
   59       1.929001074796e-10       2.331949481320e-14      -1.720329510448e-13       0.000000000000e+00       3.881425779049e-11       4.857094493375e-12      -1.002362318592e-14 
   60       1.954059948618e-10       2.452164736306e-14      -2.067865990683e-13       0.000000000000e+00       3.736496669877e-11       4.698629148859e-12      -1.160982177381e-14 
   61       1.979306700203e-10       2.575130674815e-14      -2.436402997704e-13       0.000000000000e+00       3.598021047048e-11       4.547116101920e-12      -1.266964604161e-14 
   62       2.004756168863e-10       2.700845050836e-14      -2.825973029274e-13       0.000000000000e+00       3.465862516016e-11       4.402337990452e-12      -1.317512135104e-14 
   63       2.030429560829e-10       2.829342843144e-14      -3.235908716920e-13       0.000000000000e+00       3.340028472682e-11       4.264247343655e-12      -1.318067775694e-14 
   64       2.056342676682e-10       2.960667101957e-14      -3.665395224205e-13       0.000000000000e+00       3.220381872630e-11       4.132628103079e-12      -1.275309583643e-14 
   65       2.082505490111e-10       3.094869419626e-14      -4.113464455466e-13       0.000000000000e+00       3.106633006017e-11       4.007086112234e-12      -1.197206171337e-14 
   66       2.108921726675e-10       3.232010401335e-14      -4.578989264553e-13       0.000000000000e+00       2.998331272468e-11       3.887039606197e-12      -1.093072208290e-14 
   67       2.135588442564e-10       3.372160135795e-14      -5.060677663566e-13       0.000000000000e+00       2.894856955965e-11       3.771709701227e-12      -9.736239235908e-15 
   68       2.162501121025e-10       3.515370191907e-14      -5.557244567766e-13       0.000000000000e+00       2.795586806520e-11       3.660335900484e-12      -8.494191311837e-15 
   69       2.189671102412e-10       3.661581967592e-14      -6.067980386049e-13       0.000000000000e+00       2.700448131121e-11       3.552894576931e-12      -7.256861885306e-15 
   70       2.217110945417e-10       3.810700530272e-14      -6.592287767551e-13       0.000000000000e+00       2.609462716118e-11       3.449509658014e-12      -6.065421416421e-15 
   71       2.244828946794e-10       3.962621194831e-14      -7.129513031055e-13       0.000000000000e+00       2.522579242177e-11       3.350236802544e-12      -4.965294259053e-15 
   72       2.272828861228e-10       4.117229266080e-14      -7.678944914294e-13       0.000000000000e+00       2.439669504369e-11       3.255059645201e-12      -4.006300519816e-15 
   73       2.301109621222e-10       4.274399781208e-14      -8.239813323260e-13       0.000000000000e+00       2.360524632238e-11       3.163886041029e-12      -3.242797917049e-15 
   74       2.329665056965e-10       4.433997252250e-14      -8.811288081504e-13       0.000000000000e+00       2.284851309883e-11       3.076544309937e-12      -2.733823639796e-15 
   75       2.358483616214e-10       4.595875408541e-14      -9.392477679445e-13       0.000000000000e+00       2.212267996034e-11       2.992779481200e-12      -2.543236206789e-15 
   76       2.387554453688e-10       4.759885418852e-14      -9.982627840810e-13       0.000000000000e+00       2.142399665899e-11       2.912313446112e-12      -2.718443152850e-15 
   77       2.416887600444e-10       4.925902858066e-14      -1.058176179012e-12       0.000000000000e+00       2.075190337987e-11       2.835046381328e-12      -3.221792123295e-15 
   78       2.446496980644e-10       5.093805212952e-14      -1.119015501127e-12       0.000000000000e+00       2.010640935481e-11       2.760885403707e-12      -3.986868216903e-15 
   79       2.476394221234e-10       5.263463756438e-14      -1.180814858890e-12       0.000000000000e+00       1.948714089157e-11       2.689681515196e-12      -4.938505796557e-15 
   80       2.506588502434e-10       5.434743463956e-14      -1.243615205514e-12       0.000000000000e+00       1.889332377731e-11       2.621227157826e-12      -5.992491233267e-15 
   81       2.537086408225e-10       5.607502929783e-14      -1.307464623630e-12       0.000000000000e+00       1.832376568203e-11       2.555253768692e-12      -7.055265650199e-15 
   82       2.567891776840e-10       5.781594283380e-14      -1.372418609962e-12       0.000000000000e+00       1.777683856205e-11       2.491429334943e-12      -8.023627666703e-15 
   83       2.599005551251e-10       5.956863105740e-14      -1.438540359996e-12       0.000000000000e+00       1.725046106347e-11       2.429355948772e-12      -8.784436142340e-15 
   84       2.630426992116e-10       6.133158994115e-14      -1.505877436031e-12       0.000000000000e+00       1.674260450655e-11       2.368671252187e-12      -9.242211565041e-15 
   85       2.662157875153e-10       6.310369451791e-14      -1.574386703581e-12       0.000000000000e+00       1.625294576168e-11       2.309377449909e-12      -9.407848755003e-15 
   86       2.694198718715e-10       6.488391489264e-14      -1.643997415092e-12       0.000000000000e+00       1.578145739686e-11       2.251562610635e-12      -9.324134222499e-15 
   87       2.726547358455e-10       6.667121569269e-14      -1.714633609563e-12       0.000000000000e+00       1.532789979236e-11       2.195300938112e-12      -9.039324215168e-15 
   88       2.759198820715e-10       6.846455702092e-14      -1.786214000296e-12       0.000000000000e+00       1.489181234388e-11       2.140652072174e-12      -8.607316346821e-15 
   89       2.792145195910e-10       7.026289540873e-14      -1.858651862657e-12       0.000000000000e+00       1.447250466565e-11       2.087660389774e-12      -8.087821226244e-15 
   90       2.825375511920e-10       7.206518476918e-14      -1.931854921820e-12       0.000000000000e+00       1.406904779358e-11       2.036354306020e-12      -7.546534085997e-15 
   91       2.858875607474e-10       7.387037735000e-14      -2.005725240531e-12       0.000000000000e+00       1.368026538843e-11       1.986745575206e-12      -7.055306411218e-15 
   92       2.892628005538e-10       7.567742468670e-14      -2.080159106854e-12       0.000000000000e+00       1.330472493892e-11       1.938828591851e-12      -6.692317568429e-15 
   93       2.926616583527e-10       7.748510531390e-14      -2.155057192298e-12       0.000000000000e+00       1.294107771337e-11       1.892587469029e-12      -6.524356355111e-15 
   94       2.960841662415e-10       7.929147618828e-14      -2.230357017639e-12       0.000000000000e+00       1.258915620810e-11       1.848020009330e-12      -6.550244527751e-15 
   95       2.995306963493e-10       8.109434013782e-14      -2.306005185146e-12       0.000000000000e+00       1.224902625889e-11       1.805116063592e-12      -6.749181899519e-15 
   96       3.030014953802e-10       8.289141034620e-14      -2.381947571633e-12       0.000000000000e+00       1.192064904332e-11       1.763849490564e-12      -7.097805287044e-15 
   97       3.064966785365e-10       8.468030892774e-14      -2.458129357192e-12       0.000000000000e+00       1.160387707121e-11       1.724177564695e-12      -7.570114565033e-15 
   98       3.100162234420e-10       8.645856550251e-14      -2.534495053925e-12       0.000000000000e+00       1.129845017492e-11       1.686040383930e-12      -8.137398720894e-15 
   99       3.135599640652e-10       8.822361577124e-14      -2.610988534680e-12       0.000000000000e+00       1.100399149975e-11       1.649360277501e-12      -8.768161909353e-15 
  100       3.171275846427e-10       8.997280009038e-14      -2.687553061783e-12       0.000000000000e+00       1.072000349423e-11       1.614041213717e-12      -9.428049507076e-15 
  101       3.207186136024e-10       9.170336204709e-14      -2.764131315770e-12       0.000000000000e+00       1.044586390054e-11       1.579968207756e-12      -1.007977416729e-14 
  102       3.243324174866e-10       9.341244703426e-14      -2.840665424125e-12       0.000000000000e+00       1.018082174480e-11       1.547006729461e-12      -1.068304187439e-14 
  103       3.279681948754e-10       9.509710082552e-14      -2.917096990006e-12       0.000000000000e+00       9.923993327482e-12       1.515002111128e-12      -1.119447799857e-14 
  104       3.316251628898e-10       9.675460243666e-14      -2.993369416965e-12       0.000000000000e+00       9.674562580135e-12       1.483813929258e-12      -1.157686452525e-14 
  105       3.353031584809e-10       9.838351698871e-14      -3.069435178834e-12       0.000000000000e+00       9.432421595988e-12       1.453425714839e-12      -1.182843212242e-14 
  106       3.390021074156e-10       9.998278307685e-14      -3.145249590036e-12       0.000000000000e+00       9.197609553386e-12       1.423849028272e-12      -1.195740556997e-14 
  107       3.427218350370e-10       1.015513934059e-13      -3.220768650606e-12       0.000000000000e+00       8.970114333470e-12       1.395089603468e-12      -1.197307396622e-14 
