# Matter power spectrum P(k) at redshift z=0
# for k=1.04206e-05 to 1.08688 h/Mpc,
# number of wavenumbers equal to 603
#    1:k (h/Mpc)              2:P (Mpc/h)^3        
       1.042057218184e-05       5.097747511402e+01 
       2.326967407118e-05       1.107712639583e+02 
       3.616373025385e-05       1.695902260048e+02 
       4.913726151694e-05       2.280376135593e+02 
       6.222535674519e-05       2.864608755959e+02 
       7.546398425925e-05       3.451229406422e+02 
       8.889031306114e-05       4.042502290666e+02 
       1.025430482400e-04       4.640525266249e+02 
       1.164627848241e-04       5.247330148127e+02 
       1.306923843984e-04       5.864945223766e+02 
       1.452773788140e-04       6.495438412319e+02 
       1.602664052592e-04       7.140951161953e+02 
       1.757116767896e-04       7.803727484343e+02 
       1.916694920592e-04       8.486141015021e+02 
       2.082007873531e-04       9.190720328482e+02 
       2.253717329846e-04       9.920175187769e+02 
       2.432543744979e-04       1.067742142111e+03 
       2.619273167265e-04       1.146560706537e+03 
       2.814764453069e-04       1.228813933353e+03 
       3.019956754356e-04       1.314870902439e+03 
       3.235877111086e-04       1.405131631127e+03 
       3.463647893982e-04       1.500029052592e+03 
       3.704493731400e-04       1.600031245314e+03 
       3.959747414598e-04       1.705642262795e+03 
       4.230854108700e-04       1.817402677048e+03 
       4.519373007024e-04       1.935888184855e+03 
       4.826975366868e-04       2.061707545638e+03 
       5.155437679602e-04       2.195497158729e+03 
       5.506628596178e-04       2.337913554442e+03 
       5.882488207355e-04       2.489622817745e+03 
       6.284998437510e-04       2.651285953744e+03 
       6.716143729589e-04       2.823540908701e+03 
       7.177861941321e-04       3.006980790487e+03 
       7.671986460617e-04       3.202129153911e+03 
       8.200181922824e-04       3.409414305818e+03 
       8.763877404929e-04       3.629142563178e+03 
       9.364202297721e-04       3.861474518242e+03 
       1.000193085873e-03       4.106406292341e+03 
       1.067744139097e-03       4.363757938380e+03 
       1.139069488995e-03       4.633170853085e+03 
       1.214123592691e-03       4.914114290910e+03 
       1.292821585146e-03       5.205903534457e+03 
       1.375043566260e-03       5.507701389350e+03 
       1.460640369998e-03       5.818588914198e+03 
       1.549440206739e-03       6.137600521467e+03 
       1.641255555047e-03       6.463713784608e+03 
       1.735889757970e-03       6.795897741275e+03 
       1.833142917693e-03       7.133138604706e+03 
       1.932816842085e-03       7.474457321728e+03 
       2.034718945141e-03       7.818926326350e+03 
       2.138665120595e-03       8.165677738072e+03 
       2.244481687023e-03       8.513909908522e+03 
       2.352006545691e-03       8.862890468885e+03 
       2.461089706729e-03       9.211954338346e+03 
       2.571593333874e-03       9.560501017076e+03 
       2.683391441209e-03       9.907993576632e+03 
       2.796369353385e-03       1.025395317244e+04 
       2.910423018044e-03       1.059795454302e+04 
       3.025458238157e-03       1.093962118360e+04 
       3.141389873900e-03       1.127862224658e+04 
       3.258141048979e-03       1.161466558562e+04 
       3.375642384775e-03       1.194749808435e+04 
       3.493831276973e-03       1.227690088162e+04 
       3.612651222911e-03       1.260268068663e+04 
       3.732051203381e-03       1.292467282607e+04 
       3.851985119443e-03       1.324273888935e+04 
       3.972411282778e-03       1.355676000697e+04 
       4.093291956816e-03       1.386663629265e+04 
       4.214592945137e-03       1.417229207824e+04 
       4.336283223305e-03       1.447365501395e+04 
       4.458334610212e-03       1.477067631491e+04 
       4.580721475085e-03       1.506331542231e+04 
       4.703420476514e-03       1.535153994854e+04 
       4.826410330102e-03       1.563530753251e+04 
       4.949671601620e-03       1.591465515269e+04 
       5.073186522822e-03       1.618954418652e+04 
       5.196938827396e-03       1.646003169835e+04 
       5.320913604738e-03       1.672609596481e+04 
       5.445097169534e-03       1.698773420392e+04 
       5.569476945340e-03       1.724496264205e+04 
       5.694041360547e-03       1.749779507658e+04 
       5.818779755339e-03       1.774625607514e+04 
       5.943682298366e-03       1.799036538915e+04 
       6.068739912061e-03       1.823014770267e+04 
       6.193944205599e-03       1.846563879154e+04 
       6.319287414666e-03       1.869684745702e+04 
       6.444762347267e-03       1.892382894852e+04 
       6.570362334913e-03       1.914659740941e+04 
       6.696081188603e-03       1.936502488876e+04 
       6.821913159065e-03       1.957949961640e+04 
       6.947852900830e-03       1.978985464932e+04 
       7.073895439691e-03       1.999612757184e+04 
       7.200036143231e-03       2.019835186167e+04 
       7.326270694071e-03       2.039657501707e+04 
       7.452595065570e-03       2.059081478073e+04 
       7.579005499726e-03       2.078110193543e+04 
       7.705498487058e-03       2.096750769795e+04 
       7.832070748261e-03       2.115007021927e+04 
       7.958719217469e-03       2.132880473892e+04 
       8.085441026969e-03       2.150375892835e+04 
       8.212233493217e-03       2.167498058568e+04 
       8.339094104040e-03       2.184245947889e+04 
       8.466020506906e-03       2.200634637678e+04 
       8.593010498167e-03       2.216665530121e+04 
       8.720062013184e-03       2.232342593305e+04 
       8.847173117248e-03       2.247660250751e+04 
       8.974341997231e-03       2.262620191670e+04 
       9.101566953904e-03       2.277234673461e+04 
       9.228846394849e-03       2.291516445829e+04 
       9.356178827935e-03       2.305458454838e+04 
       9.483562855287e-03       2.319061534046e+04 
       9.610997167722e-03       2.332337511364e+04 
       9.738480539603e-03       2.345286902659e+04 
       9.866011824080e-03       2.357911857835e+04 
       9.993589948689e-03       2.370225256147e+04 
       1.012121391127e-02       2.382214868028e+04 
       1.024888277620e-02       2.393884332868e+04 
       1.037659567085e-02       2.405258398508e+04 
       1.050435178240e-02       2.416318291353e+04 
       1.063215035476e-02       2.427076497292e+04 
       1.075999068579e-02       2.437521107856e+04 
       1.088787212472e-02       2.447691456463e+04 
       1.101579406970e-02       2.457566180613e+04 
       1.114375596555e-02       2.467144784124e+04 
       1.127175730171e-02       2.476437638373e+04 
       1.139979761025e-02       2.485447875680e+04 
       1.152787646409e-02       2.494178213524e+04 
       1.165599347531e-02       2.502632329387e+04 
       1.178414829358e-02       2.510815114748e+04 
       1.191234060471e-02       2.518717937898e+04 
       1.204057012930e-02       2.526367040830e+04 
       1.216883662147e-02       2.533753543181e+04 
       1.229713986770e-02       2.540879365339e+04 
       1.242547968574e-02       2.547736014090e+04 
       1.255385592360e-02       2.554353801470e+04 
       1.268226845859e-02       2.560727099158e+04 
       1.281071719650e-02       2.566829018868e+04 
       1.293920207075e-02       2.572693544753e+04 
       1.306772304166e-02       2.578328937068e+04 
       1.319628009576e-02       2.583704104509e+04 
       1.332487324514e-02       2.588868080255e+04 
       1.345350252690e-02       2.593786915198e+04 
       1.358216800256e-02       2.598479822168e+04 
       1.371086975761e-02       2.602923205253e+04 
       1.383960790101e-02       2.607168860144e+04 
       1.396838256483e-02       2.611165864178e+04 
       1.409719390384e-02       2.614974762472e+04 
       1.422604209517e-02       2.618555498494e+04 
       1.435492733802e-02       2.621918444641e+04 
       1.448384985339e-02       2.625062975877e+04 
       1.461280988382e-02       2.627995983124e+04 
       1.474180769318e-02       2.630736423249e+04 
       1.487084356650e-02       2.633256758951e+04 
       1.499991780983e-02       2.635582844996e+04 
       1.512903075006e-02       2.637706077929e+04 
       1.525818273484e-02       2.639644660150e+04 
       1.538737413253e-02       2.641388712598e+04 
       1.551660533208e-02       2.642930209641e+04 
       1.564587674306e-02       2.644290290625e+04 
       1.577518879559e-02       2.645464261347e+04 
       1.590454194039e-02       2.646461329635e+04 
       1.603393664878e-02       2.647264923902e+04 
       1.616337341274e-02       2.647899456884e+04 
       1.629285274500e-02       2.648361840874e+04 
       1.642237517907e-02       2.648642786992e+04 
       1.655194126939e-02       2.648749105517e+04 
       1.668155159146e-02       2.648692041926e+04 
       1.681120674194e-02       2.648475712190e+04 
       1.694090733885e-02       2.648082536256e+04 
       1.707065402172e-02       2.647531073780e+04 
       1.720044745181e-02       2.646819433261e+04 
       1.733028831227e-02       2.645953841629e+04 
       1.746017730845e-02       2.644929302250e+04 
       1.759011516805e-02       2.643756324559e+04 
       1.772010264146e-02       2.642431697105e+04 
       1.785014050199e-02       2.640954867646e+04 
       1.798022954618e-02       2.639332098944e+04 
       1.811037059412e-02       2.637567454984e+04 
       1.824056448975e-02       2.635653152861e+04 
       1.837081210124e-02       2.633605218746e+04 
       1.850111432132e-02       2.631414300907e+04 
       1.863147206769e-02       2.629089676877e+04 
       1.876188628337e-02       2.626629292708e+04 
       1.889235793715e-02       2.624033157068e+04 
       1.902288802400e-02       2.621322234084e+04 
       1.915347756555e-02       2.618461816070e+04 
       1.928412761048e-02       2.615492041448e+04 
       1.941483923509e-02       2.612381835979e+04 
       1.954561354375e-02       2.609167875408e+04 
       1.967645166942e-02       2.605827904449e+04 
       1.980735477421e-02       2.602364850469e+04 
       1.993832404991e-02       2.598798537196e+04 
       2.006936071861e-02       2.595112176729e+04 
       2.020046603324e-02       2.591314442159e+04 
       2.033164127822e-02       2.587404869435e+04 
       2.046288777012e-02       2.583387158852e+04 
       2.059420685826e-02       2.579265010385e+04 
       2.072559992545e-02       2.575035962727e+04 
       2.085706838865e-02       2.570700242230e+04 
       2.098861369972e-02       2.566270620975e+04 
       2.112023734617e-02       2.561742831162e+04 
       2.125194085192e-02       2.557113454335e+04 
       2.138372577811e-02       2.552382550179e+04 
       2.151559372392e-02       2.547562166427e+04 
       2.164754632740e-02       2.542645914860e+04 
       2.177958526640e-02       2.537642951055e+04 
       2.191171225941e-02       2.532546798283e+04 
       2.204392906655e-02       2.527367651198e+04 
       2.217623749047e-02       2.522092833451e+04 
       2.230863937740e-02       2.516739770501e+04 
       2.244113661815e-02       2.511305734143e+04 
       2.257373114915e-02       2.505786335640e+04 
       2.270642495357e-02       2.500198720030e+04 
       2.283922006239e-02       2.494523027478e+04 
       2.297211855563e-02       2.488780076822e+04 
       2.310512256347e-02       2.482960164444e+04 
       2.323823426753e-02       2.477072205331e+04 
       2.337145590214e-02       2.471127959770e+04 
       2.350478975560e-02       2.465095874286e+04 
       2.363823817159e-02       2.459015326416e+04 
       2.377180355052e-02       2.452858192706e+04 
       2.390548835100e-02       2.446639784563e+04 
       2.403929509132e-02       2.440364475197e+04 
       2.417322635095e-02       2.434012121331e+04 
       2.430728477217e-02       2.427589259282e+04 
       2.444147306165e-02       2.421117579141e+04 
       2.457579399219e-02       2.414596319182e+04 
       2.471025040442e-02       2.408002653835e+04 
       2.484484520861e-02       2.401363745105e+04 
       2.497958138653e-02       2.394671180807e+04 
       2.511446199337e-02       2.387922671348e+04 
       2.524949015970e-02       2.381122836994e+04 
       2.538466909356e-02       2.374274712407e+04 
       2.552000208254e-02       2.367382391440e+04 
       2.565549249596e-02       2.360444427294e+04 
       2.579114378719e-02       2.353455551351e+04 
       2.592695949593e-02       2.346424676317e+04 
       2.606294325065e-02       2.339345986498e+04 
       2.619909877110e-02       2.332232672049e+04 
       2.633542987090e-02       2.325077204994e+04 
       2.647194046021e-02       2.317880651957e+04 
       2.660863454854e-02       2.310644798023e+04 
       2.674551624756e-02       2.303372009553e+04 
       2.688258977414e-02       2.296061415423e+04 
       2.701985945341e-02       2.288721388725e+04 
       2.715732972196e-02       2.281337760130e+04 
       2.729500513111e-02       2.273928019434e+04 
       2.743289035043e-02       2.266489261535e+04 
       2.757099017121e-02       2.259017818446e+04 
       2.770930951021e-02       2.251515370014e+04 
       2.784785341348e-02       2.243993604819e+04 
       2.798662706029e-02       2.236428959357e+04 
       2.812563576733e-02       2.228840072017e+04 
       2.826488499293e-02       2.221235823459e+04 
       2.840438034155e-02       2.213605572239e+04 
       2.854412756837e-02       2.205941413549e+04 
       2.868413258412e-02       2.198266040650e+04 
       2.882440146005e-02       2.190564610611e+04 
       2.896494043314e-02       2.182843016164e+04 
       2.910575591146e-02       2.175100481004e+04 
       2.924685447984e-02       2.167341275981e+04 
       2.938824290569e-02       2.159564400340e+04 
       2.952992814506e-02       2.151769543959e+04 
       2.967191734903e-02       2.143954522621e+04 
       2.981421787025e-02       2.136124889402e+04 
       2.995683726987e-02       2.128278948322e+04 
       3.009978332469e-02       2.120427641219e+04 
       3.024306403464e-02       2.112552716182e+04 
       3.038668763056e-02       2.104674273390e+04 
       3.053066258240e-02       2.096776287251e+04 
       3.067499760764e-02       2.088872819218e+04 
       3.081970168023e-02       2.080953809028e+04 
       3.096478403981e-02       2.073029360873e+04 
       3.111025420145e-02       2.065097280541e+04 
       3.125612196574e-02       2.057153005167e+04 
       3.140239742941e-02       2.049197969815e+04 
       3.154909099640e-02       2.041247391396e+04 
       3.169621338949e-02       2.033280217433e+04 
       3.184377566244e-02       2.025316107186e+04 
       3.199178921272e-02       2.017337323037e+04 
       3.214026579485e-02       2.009364381942e+04 
       3.228921753445e-02       2.001380467571e+04 
       3.243865694286e-02       1.993398658908e+04 
       3.258859693257e-02       1.985402031806e+04 
       3.273905083344e-02       1.977408865083e+04 
       3.289003240964e-02       1.969408889830e+04 
       3.304155587758e-02       1.961414100989e+04 
       3.319363592466e-02       1.953420893338e+04 
       3.334628772906e-02       1.945418040096e+04 
       3.349952698058e-02       1.937414954787e+04 
       3.365336990249e-02       1.929422623888e+04 
       3.380783327471e-02       1.921421975835e+04 
       3.396293445813e-02       1.913419094321e+04 
       3.411869142031e-02       1.905428382541e+04 
       3.427512276259e-02       1.897429442368e+04 
       3.443224774876e-02       1.889435421762e+04 
       3.459008633536e-02       1.881446716569e+04 
       3.474865920362e-02       1.873451428613e+04 
       3.490798779340e-02       1.865468917724e+04 
       3.506809433905e-02       1.857484703911e+04 
       3.522900190736e-02       1.849501621251e+04 
       3.539073443791e-02       1.841521870502e+04 
       3.555331678574e-02       1.833546432249e+04 
       3.571677476678e-02       1.825574657214e+04 
       3.588113520600e-02       1.817608704491e+04 
       3.604642598866e-02       1.809636483339e+04 
       3.621267611484e-02       1.801683020258e+04 
       3.637991575745e-02       1.793725215726e+04 
       3.654817632410e-02       1.785770381836e+04 
       3.671749052301e-02       1.777822648883e+04 
       3.688789243340e-02       1.769880225540e+04 
       3.705941758069e-02       1.761934579465e+04 
       3.723210301680e-02       1.754000123578e+04 
       3.740598740618e-02       1.746057564970e+04 
       3.758111111783e-02       1.738137097307e+04 
       3.775751632403e-02       1.730206449042e+04 
       3.793524710623e-02       1.722280868853e+04 
       3.811434956870e-02       1.714365154147e+04 
       3.829487196082e-02       1.706448714856e+04 
       3.847686480858e-02       1.698532726823e+04 
       3.866038105627e-02       1.690626732971e+04 
       3.884547621928e-02       1.682718270503e+04 
       3.903220854898e-02       1.674813560574e+04 
       3.922063921103e-02       1.666902261319e+04 
       3.941083247821e-02       1.658997982157e+04 
       3.960285593935e-02       1.651093878724e+04 
       3.979678072600e-02       1.643196145115e+04 
       3.999268175844e-02       1.635288451700e+04 
       4.019063801341e-02       1.627390145317e+04 
       4.039073281548e-02       1.619483846868e+04 
       4.059305415483e-02       1.611579503528e+04 
       4.079769503422e-02       1.603672592211e+04 
       4.100475384851e-02       1.595761520913e+04 
       4.121433480028e-02       1.587844534600e+04 
       4.142654835573e-02       1.579926164178e+04 
       4.164151174566e-02       1.571998707457e+04 
       4.185934951690e-02       1.564067997535e+04 
       4.208019414017e-02       1.556127324928e+04 
       4.230418668160e-02       1.548182487980e+04 
       4.253147754575e-02       1.540224783643e+04 
       4.276222729946e-02       1.532256432103e+04 
       4.299660758703e-02       1.524279101078e+04 
       4.323480214917e-02       1.516281125606e+04 
       4.347700795965e-02       1.508270999684e+04 
       4.372343649631e-02       1.500247610253e+04 
       4.397431516545e-02       1.492201083536e+04 
       4.422988890203e-02       1.484143844365e+04 
       4.449042197184e-02       1.476050709327e+04 
       4.475620000645e-02       1.467940749611e+04 
       4.502753230701e-02       1.459810972753e+04 
       4.530475446011e-02       1.451642024837e+04 
       4.558823131619e-02       1.443442310482e+04 
       4.587836039146e-02       1.435209769639e+04 
       4.617557576556e-02       1.426939237082e+04 
       4.648035256198e-02       1.418629288198e+04 
       4.679321211609e-02       1.410270102224e+04 
       4.711472795746e-02       1.401869528784e+04 
       4.744553276042e-02       1.393410886398e+04 
       4.778632645086e-02       1.384894144468e+04 
       4.813788569931e-02       1.376316020754e+04 
       4.850107508359e-02       1.367666668404e+04 
       4.887686027110e-02       1.358937724557e+04 
       4.926632365536e-02       1.350126719337e+04 
       4.967068298830e-02       1.341229368276e+04 
       5.009131368619e-02       1.332223472814e+04 
       5.052977566070e-02       1.323101409574e+04 
       5.098784574743e-02       1.313850282344e+04 
       5.146755708620e-02       1.304470096174e+04 
       5.197124716478e-02       1.294929172535e+04 
       5.250161668691e-02       1.285213748616e+04 
       5.306180198290e-02       1.275295480114e+04 
       5.365546435363e-02       1.265156340768e+04 
       5.428690051164e-02       1.254722494710e+04 
       5.496117909081e-02       1.244008825486e+04 
       5.568430885770e-02       1.232916931888e+04 
       5.646344436477e-02       1.221401241386e+04 
       5.730713347390e-02       1.209371945829e+04 
       5.822560673139e-02       1.196695295905e+04 
       5.923109774848e-02       1.183249183255e+04 
       6.033816081082e-02       1.168816944210e+04 
       6.156390783279e-02       1.153130521982e+04 
