# dimensionless total [l(l+1)/2pi] C_l's
# for l=2 to 3000, i.e. number of multipoles equal to 2999
#
# -> if you prefer output in CAMB/HealPix/LensPix units/order, set 'format' to 'camb' in input file
# -> if you don't want to see such a header, set 'headers' to 'no' in input file
# -> for CMB lensing (phi), these are C_l^phi-phi for the lensing potential.
#    Remember the conversion factors:
#    C_l^dd (deflection) = l(l+1) C_l^phi-phi
#    C_l^gg (shear/convergence) = 1/4 (l(l+1))^2 C_l^phi-phi
#
# 1:l     2:TT                     3:EE                     4:TE                     5:BB                     6:phiphi                 7:TPhi                   8:Ephi               
    2       1.502595731173e-10       1.302019229336e-14       6.562547699232e-13       0.000000000000e+00       8.678163351838e-09       4.883453001802e-10      -3.203412062228e-12 
    3       1.416013393500e-10       2.867324504717e-14       9.374203067180e-13       0.000000000000e+00       5.333853926483e-09       3.507253882750e-10      -3.165020682959e-12 
    4       1.324164220104e-10       4.400500771583e-14       1.082291567669e-12       0.000000000000e+00       3.714679401615e-09       2.690683878485e-10      -2.889749817392e-12 
    5       1.245515487531e-10       5.498647773494e-14       1.123916447433e-12       0.000000000000e+00       2.775878001044e-09       2.153361160972e-10      -2.535734773900e-12 
    6       1.181893734973e-10       5.941945164254e-14       1.095462895536e-12       0.000000000000e+00       2.170143916738e-09       1.774028565023e-10      -2.152190543001e-12 
    7       1.131598975020e-10       5.719482430605e-14       1.024147028244e-12       0.000000000000e+00       1.751819428958e-09       1.492142611361e-10      -1.767669474444e-12 
    8       1.092936482115e-10       4.978869506948e-14       9.284718832874e-13       0.000000000000e+00       1.448075117036e-09       1.274801402102e-10      -1.400692602872e-12 
    9       1.064057574697e-10       3.949814865427e-14       8.206969141407e-13       0.000000000000e+00       1.219127657166e-09       1.102889967505e-10      -1.063933512545e-12 
   10       1.043392677076e-10       2.867185996831e-14       7.087330012654e-13       0.000000000000e+00       1.041768573046e-09       9.641004909795e-11      -7.656649665102e-13 
   11       1.030007224024e-10       1.914517465438e-14       5.978851899632e-13       0.000000000000e+00       8.786129989713e-10       8.503583698463e-11      -5.128910411703e-13 
   12       1.022016171072e-10       1.196404181178e-14       4.924624701505e-13       0.000000000000e+00       7.678784068586e-10       7.527902584554e-11      -3.039234031045e-13 
   13       1.018947647698e-10       7.382025744309e-15       3.962060439550e-13       0.000000000000e+00       6.769549769131e-10       6.725217681441e-11      -1.368154160530e-13 
   14       1.019759106916e-10       5.048999110417e-15       3.123710593499e-13       0.000000000000e+00       6.012920968412e-10       6.026995086012e-11      -1.282060571895e-14 
   15       1.023688128285e-10       4.286058446857e-15       2.436099085654e-13       0.000000000000e+00       5.375908094586e-10       5.437947378148e-11       7.387493616536e-14 
   16       1.030060606536e-10       4.352866729562e-15       1.914590107299e-13       0.000000000000e+00       4.834195267235e-10       4.931458342172e-11       1.272379604443e-13 
   17       1.038525946053e-10       4.644414078651e-15       1.563209589817e-13       0.000000000000e+00       4.369413314310e-10       4.491517211070e-11       1.522026245462e-13 
   18       1.048214469742e-10       4.776263347411e-15       1.374962960177e-13       0.000000000000e+00       3.965939392482e-10       4.109021560269e-11       1.544749146897e-13 
   19       1.059177403328e-10       4.663864253873e-15       1.334094982084e-13       0.000000000000e+00       3.617391087879e-10       3.778288451715e-11       1.387436598384e-13 
   20       1.071244762051e-10       4.331634459052e-15       1.407543124424e-13       0.000000000000e+00       3.310358420056e-10       3.485877359204e-11       1.112269205839e-13 
   21       1.084255067917e-10       3.922106653615e-15       1.567595033168e-13       0.000000000000e+00       3.040033609704e-10       3.226447071708e-11       7.632641323106e-14 
   22       1.097768624189e-10       3.629519782508e-15       1.780275933380e-13       0.000000000000e+00       2.799962728331e-10       2.993309127589e-11       3.850549440481e-14 
   23       1.111873259842e-10       3.542584890788e-15       2.017054709616e-13       0.000000000000e+00       2.586856129929e-10       2.784914863286e-11       1.008118506058e-15 
   24       1.126612094696e-10       3.698515377280e-15       2.248040969774e-13       0.000000000000e+00       2.395798862450e-10       2.598657441018e-11      -3.318679030467e-14 
   25       1.141940698948e-10       4.041886345643e-15       2.454190206022e-13       0.000000000000e+00       2.224550755444e-10       2.432065856005e-11      -6.218684568801e-14 
   26       1.157648295509e-10       4.467939340618e-15       2.619883701778e-13       0.000000000000e+00       2.070018807789e-10       2.281023932574e-11      -8.461511858031e-14 
   27       1.173705023056e-10       4.866256468689e-15       2.737334163554e-13       0.000000000000e+00       1.930354061820e-10       2.143409588142e-11      -9.995113248982e-14 
   28       1.190050583813e-10       5.127612329873e-15       2.802703982946e-13       0.000000000000e+00       1.803153566272e-10       2.016827310472e-11      -1.082147555798e-13 
   29       1.206751713964e-10       5.231163693737e-15       2.817302553116e-13       0.000000000000e+00       1.687771203296e-10       1.900848314339e-11      -1.098571096897e-13 
   30       1.223804375244e-10       5.188507174772e-15       2.786070707499e-13       0.000000000000e+00       1.582971722853e-10       1.794588881183e-11      -1.058149201930e-13 
   31       1.241105891095e-10       5.025945075532e-15       2.716446591764e-13       0.000000000000e+00       1.486621857664e-10       1.696231959287e-11      -9.738754188103e-14 
   32       1.258668585244e-10       4.802821133225e-15       2.616275980631e-13       0.000000000000e+00       1.398226160617e-10       1.605068818582e-11      -8.567114860847e-14 
   33       1.276461689597e-10       4.602390301832e-15       2.495498546759e-13       0.000000000000e+00       1.317161245073e-10       1.520033369042e-11      -7.196830969340e-14 
   34       1.294392737483e-10       4.509837617195e-15       2.365538932828e-13       0.000000000000e+00       1.242294771338e-10       1.439678909392e-11      -5.775546219954e-14 
   35       1.312479693151e-10       4.547178449365e-15       2.234590358760e-13       0.000000000000e+00       1.173244963342e-10       1.364266696867e-11      -4.396187854038e-14 
   36       1.330723599825e-10       4.715749350843e-15       2.110860458524e-13       0.000000000000e+00       1.109459338007e-10       1.294321009058e-11      -3.146077581646e-14 
   37       1.349085095322e-10       5.011833325314e-15       2.002281096637e-13       0.000000000000e+00       1.050109479490e-10       1.230034294992e-11      -2.110877682591e-14 
   38       1.367586171239e-10       5.422708261426e-15       1.911004396287e-13       0.000000000000e+00       9.950430230660e-11       1.171236863532e-11      -1.320244404134e-14 
   39       1.386231625009e-10       5.928565195665e-15       1.837058732280e-13       0.000000000000e+00       9.440861540650e-11       1.117355508531e-11      -7.840752097660e-15 
   40       1.404975099649e-10       6.502975040409e-15       1.779739580025e-13       0.000000000000e+00       8.967540036691e-11       1.067374869797e-11      -5.063533093268e-15 
   41       1.423752069024e-10       7.119045242839e-15       1.737109829485e-13       0.000000000000e+00       8.524197736069e-11       1.020152974593e-11      -4.799407369091e-15 
   42       1.442604326447e-10       7.771407173575e-15       1.704461846375e-13       0.000000000000e+00       8.109535664625e-11       9.755791532386e-12      -6.702575009511e-15 
   43       1.461587186198e-10       8.460611301443e-15       1.675245005288e-13       0.000000000000e+00       7.722458363292e-11       9.337316232197e-12      -1.025352262630e-14 
   44       1.480732173940e-10       9.187122344271e-15       1.641363611814e-13       0.000000000000e+00       7.360156755208e-11       8.945459007348e-12      -1.479233372894e-14 
   45       1.500054922889e-10       9.949641948784e-15       1.594456154924e-13       0.000000000000e+00       7.019112773375e-11       8.578593617621e-12      -1.962398633236e-14 
   46       1.519587862644e-10       1.073949180762e-14       1.530413064577e-13       0.000000000000e+00       6.698792937896e-11       8.235897927003e-12      -2.439244299926e-14 
   47       1.539352838191e-10       1.154454189442e-14       1.446047935113e-13       0.000000000000e+00       6.398826910593e-11       7.915892993282e-12      -2.880348702215e-14 
   48       1.559349470932e-10       1.235063728661e-14       1.337825026783e-13       0.000000000000e+00       6.117893389214e-11       7.615832919991e-12      -3.251822746867e-14 
   49       1.579553139824e-10       1.314149634724e-14       1.201843381696e-13       0.000000000000e+00       5.853649375855e-11       7.331614618683e-12      -3.515090186563e-14 
   50       1.599931709601e-10       1.390371653744e-14       1.034864764529e-13       0.000000000000e+00       5.603436377818e-11       7.058931996358e-12      -3.636486468131e-14 
   51       1.620505752202e-10       1.464362993185e-14       8.377632766618e-14       0.000000000000e+00       5.366789091757e-11       6.797317209207e-12      -3.619636685933e-14 
   52       1.641301182050e-10       1.537484694343e-14       6.129846442510e-14       0.000000000000e+00       5.143485409608e-11       6.547040380079e-12      -3.481486438395e-14 
   53       1.662330827988e-10       1.611368382632e-14       3.636166805087e-14       0.000000000000e+00       4.932795642599e-11       6.307930122744e-12      -3.243487951254e-14 
   54       1.683593296643e-10       1.687930121676e-14       9.342252281823e-15       0.000000000000e+00       4.733448351192e-11       6.079341865356e-12      -2.931842396779e-14 
   55       1.705079718350e-10       1.768986864954e-14      -1.937153310192e-14       0.000000000000e+00       4.544018546065e-11       5.860478409499e-12      -2.574507385716e-14 
   56       1.726798551329e-10       1.854962494561e-14      -4.957007921654e-14       0.000000000000e+00       4.364283502739e-11       5.651517428929e-12      -2.190793764003e-14 
   57       1.748754948483e-10       1.945884601230e-14      -8.107336279749e-14       0.000000000000e+00       4.194143908870e-11       5.452708581778e-12      -1.799608878169e-14 
   58       1.770942603223e-10       2.041752129831e-14      -1.136751683067e-13       0.000000000000e+00       4.033213674260e-11       5.264028252849e-12      -1.422578731048e-14 
   59       1.793342919934e-10       2.142533750255e-14      -1.471420598091e-13       0.000000000000e+00       3.880802216816e-11       5.085161600549e-12      -1.084164268772e-14 
   60       1.815924184453e-10       2.248166228291e-14      -1.812123528486e-13       0.000000000000e+00       3.735896748502e-11       4.915484603802e-12      -8.117776677589e-15 
   61       1.838654349783e-10       2.358524273696e-14      -2.156681604637e-13       0.000000000000e+00       3.597443664513e-11       4.754261383413e-12      -6.290664971327e-15 
   62       1.861544623518e-10       2.473325861206e-14      -2.505727544681e-13       0.000000000000e+00       3.465306592164e-11       4.601328537700e-12      -5.337415993200e-15 
   63       1.884614236596e-10       2.592202670197e-14      -2.860849005016e-13       0.000000000000e+00       3.339492931138e-11       4.456533254345e-12      -5.149561434121e-15 
   64       1.907877301729e-10       2.714724248276e-14      -3.223917501727e-13       0.000000000000e+00       3.219865665349e-11       4.319520688217e-12      -5.596000893191e-15 
   65       1.931342415876e-10       2.840395477160e-14      -3.597101315212e-13       0.000000000000e+00       3.106135139228e-11       4.189722838788e-12      -6.521996966136e-15 
   66       1.955012262716e-10       2.968654038549e-14      -3.982878394826e-13       0.000000000000e+00       2.997850833987e-11       4.066347427554e-12      -7.748170333749e-15 
   67       1.978883215119e-10       3.098867880001e-14      -4.384049263507e-13       0.000000000000e+00       2.894393143903e-11       3.948366775454e-12      -9.069494850332e-15 
   68       2.002950531934e-10       3.230466107885e-14      -4.803165118676e-13       0.000000000000e+00       2.795138929373e-11       3.834769473600e-12      -1.029178863649e-14 
   69       2.027226059701e-10       3.363368129083e-14      -5.240648724757e-13       0.000000000000e+00       2.700015512187e-11       3.725399474356e-12      -1.135201976995e-14 
   70       2.051723420116e-10       3.497637311808e-14      -5.696314197025e-13       0.000000000000e+00       2.609044676599e-11       3.620267822304e-12      -1.222068443176e-14 
   71       2.076452483193e-10       3.633356114890e-14      -6.169916100974e-13       0.000000000000e+00       2.522175113173e-11       3.519300581786e-12      -1.286642266596e-14 
   72       2.101419112814e-10       3.770626966105e-14      -6.661147400338e-13       0.000000000000e+00       2.439278639480e-11       3.422334435380e-12      -1.325597244514e-14 
   73       2.126624912279e-10       3.909573140513e-14      -7.169637405103e-13       0.000000000000e+00       2.360146420793e-11       3.329112282375e-12      -1.335412373589e-14 
   74       2.152066969855e-10       4.050339638782e-14      -7.694949719527e-13       0.000000000000e+00       2.284485190781e-11       3.239278837249e-12      -1.312367256443e-14 
   75       2.177737604327e-10       4.193094065530e-14      -8.236580190160e-13       0.000000000000e+00       2.211913472202e-11       3.152376228139e-12      -1.252537508206e-14 
   76       2.203629200656e-10       4.337977674435e-14      -8.793861852513e-13       0.000000000000e+00       2.142056303094e-11       3.067972194826e-12      -1.153749740829e-14 
   77       2.229750297442e-10       4.484946255737e-14      -9.365664295819e-13       0.000000000000e+00       2.074857711957e-11       2.986081401388e-12      -1.021868245583e-14 
   78       2.256111984435e-10       4.633901694758e-14      -9.950635493245e-13       0.000000000000e+00       2.010318622428e-11       2.906813312204e-12      -8.656516982744e-15 
   79       2.282722925032e-10       4.784739089866e-14      -1.054728604473e-12       0.000000000000e+00       1.948401671917e-11       2.830244752956e-12      -6.949302973125e-15 
   80       2.309589206206e-10       4.937346608938e-14      -1.115398521794e-12       0.000000000000e+00       1.889029452236e-11       2.756418228164e-12      -5.206413529891e-15 
   81       2.336714188432e-10       5.091605345821e-14      -1.176895698920e-12       0.000000000000e+00       1.832082750226e-11       2.685340238723e-12      -3.548648767621e-15 
   82       2.364098355617e-10       5.247389176795e-14      -1.239027608448e-12       0.000000000000e+00       1.777398788392e-11       2.616979599439e-12      -2.108591705378e-15 
   83       2.391739165019e-10       5.404564617036e-14      -1.301586402030e-12       0.000000000000e+00       1.724769465525e-11       2.551265756565e-12      -1.030964159531e-15 
   84       2.419633870383e-10       5.562989923611e-14      -1.364391468138e-12       0.000000000000e+00       1.673991946801e-11       2.488105409700e-12      -4.367376543621e-16 
   85       2.447788857789e-10       5.722512548051e-14      -1.427426078808e-12       0.000000000000e+00       1.625033924134e-11       2.427439228975e-12      -3.078505620996e-16 
   86       2.476211589530e-10       5.882970996336e-14      -1.490722775485e-12       0.000000000000e+00       1.577892654147e-11       2.369191499376e-12      -5.839431599412e-16 
   87       2.504907669892e-10       6.044195390908e-14      -1.554322750679e-12       0.000000000000e+00       1.532544178003e-11       2.313251297808e-12      -1.196653852168e-15 
   88       2.533880745051e-10       6.206007314474e-14      -1.618276173966e-12       0.000000000000e+00       1.488942441856e-11       2.259471118269e-12      -2.069365903602e-15 
   89       2.563132402965e-10       6.368219653801e-14      -1.682642518000e-12       0.000000000000e+00       1.447018417300e-11       2.207665497018e-12      -3.116954173068e-15 
   90       2.592662073276e-10       6.530636443514e-14      -1.747490884512e-12       0.000000000000e+00       1.406679221825e-11       2.157609637751e-12      -4.245531846850e-15 
   91       2.622466927205e-10       6.693052709899e-14      -1.812900330320e-12       0.000000000000e+00       1.367807239268e-11       2.109038036771e-12      -5.352197172151e-15 
   92       2.652541777445e-10       6.855254314694e-14      -1.878960193331e-12       0.000000000000e+00       1.330259240265e-11       2.061643108161e-12      -6.324780190554e-15 
   93       2.682880962581e-10       7.017039513190e-14      -1.945742032353e-12       0.000000000000e+00       1.293900372197e-11       2.015148367654e-12      -7.066247488945e-15 
   94       2.713484541967e-10       7.178287676692e-14      -2.013209910861e-12       0.000000000000e+00       1.258713887191e-11       1.969543561198e-12      -7.572665224929e-15 
   95       2.744352851811e-10       7.338900665211e-14      -2.081297159868e-12       0.000000000000e+00       1.224706367811e-11       1.924882522371e-12      -7.866548041588e-15 
   96       2.775484531786e-10       7.498782174082e-14      -2.149933499044e-12       0.000000000000e+00       1.191873932496e-11       1.881211417967e-12      -7.973329896094e-15 
   97       2.806876452173e-10       7.657837875830e-14      -2.219044973072e-12       0.000000000000e+00       1.160201834658e-11       1.838568396619e-12      -7.921449269734e-15 
   98       2.838523640990e-10       7.815975562038e-14      -2.288553887997e-12       0.000000000000e+00       1.129664061781e-11       1.796983237431e-12      -7.742434377926e-15 
   99       2.870419211137e-10       7.973105285215e-14      -2.358378747577e-12       0.000000000000e+00       1.100222934526e-11       1.756476998603e-12      -7.470988380241e-15 
  100       2.902554287531e-10       8.129139500659e-14      -2.428434189642e-12       0.000000000000e+00       1.071828705825e-11       1.717061666057e-12      -7.145074590427e-15 
  101       2.934917934242e-10       8.283993208330e-14      -2.498630922442e-12       0.000000000000e+00       1.044419159983e-11       1.678739802068e-12      -6.806001686420e-15 
  102       2.967497081634e-10       8.437584094711e-14      -2.568875661000e-12       0.000000000000e+00       1.017919211779e-11       1.641504193887e-12      -6.498508920374e-15 
  103       3.000276453500e-10       8.589832674683e-14      -2.639071063467e-12       0.000000000000e+00       9.922405055657e-12       1.605337502371e-12      -6.270851328676e-15 
  104       3.033241706603e-10       8.740641264867e-14      -2.709123397466e-12       0.000000000000e+00       9.673014476885e-12       1.570220146715e-12      -6.164144825345e-15 
  105       3.066389489234e-10       8.889827363269e-14      -2.778966855661e-12       0.000000000000e+00       9.430912491342e-12       1.536155928486e-12      -6.178578736568e-15 
  106       3.099718611908e-10       9.037181492784e-14      -2.848542421504e-12       0.000000000000e+00       9.196138269929e-12       1.503149230077e-12      -6.302776680247e-15 
  107       3.133226919187e-10       9.182487476415e-14      -2.917790453596e-12       0.000000000000e+00       8.968679694496e-12       1.471196829984e-12      -6.524096689132e-15 
