# dimensionless total [l(l+1)/2pi] C_l's
# for l=2 to 3000, i.e. number of multipoles equal to 2999
#
# -> if you prefer output in CAMB/HealPix/LensPix units/order, set 'format' to 'camb' in input file
# -> if you don't want to see such a header, set 'headers' to 'no' in input file
# -> for CMB lensing (phi), these are C_l^phi-phi for the lensing potential.
#    Remember the conversion factors:
#    C_l^dd (deflection) = l(l+1) C_l^phi-phi
#    C_l^gg (shear/convergence) = 1/4 (l(l+1))^2 C_l^phi-phi
#
# 1:l     2:TT                     3:EE                     4:TE                     5:BB                     6:phiphi                 7:TPhi                   8:Ephi               
    2       1.525385613867e-10       1.631869913653e-14       7.518419803671e-13       0.000000000000e+00       8.529061148154e-09       4.913520380839e-10      -3.516973975957e-12 
    3       1.442766779690e-10       3.943217429402e-14       1.128181625816e-12       0.000000000000e+00       5.335849582759e-09       3.542796013226e-10      -3.596584780455e-12 
    4       1.351609333077e-10       6.640312399846e-14       1.356622776457e-12       0.000000000000e+00       3.723689972887e-09       2.726028227528e-10      -3.412384252905e-12 
    5       1.270828604369e-10       9.165280317644e-14       1.462083719334e-12       0.000000000000e+00       2.783477515995e-09       2.189760289590e-10      -3.131306581731e-12 
    6       1.202831295721e-10       1.104876567974e-13       1.476557675421e-12       0.000000000000e+00       2.175233718503e-09       1.811483746891e-10      -2.801888365586e-12 
    7       1.146570460694e-10       1.201371279472e-13       1.430105889864e-12       0.000000000000e+00       1.754115238634e-09       1.530414595760e-10      -2.452112200550e-12 
    8       1.100872847461e-10       1.199538467950e-13       1.345327317799e-12       0.000000000000e+00       1.449046523749e-09       1.313789981210e-10      -2.099823226212e-12 
    9       1.064302936874e-10       1.111247425678e-13       1.238191097988e-12       0.000000000000e+00       1.220496963823e-09       1.142351116817e-10      -1.757686317490e-12 
   10       1.035732193687e-10       9.606290453292e-14       1.118893302312e-12       0.000000000000e+00       1.044177665257e-09       1.003545008219e-10      -1.434855424686e-12 
   11       1.014486090667e-10       7.770029926896e-14       9.931469489942e-13       0.000000000000e+00       8.782963903933e-10       8.873502697146e-11      -1.142443432981e-12 
   12       9.990042739076e-11       5.885387092407e-14       8.647008498787e-13       0.000000000000e+00       7.675980761814e-10       7.889434041126e-11      -8.779949271993e-13 
   13       9.888813024626e-11       4.177149639036e-14       7.364391743554e-13       0.000000000000e+00       6.767053570650e-10       7.073489989924e-11      -6.418161548757e-13 
   14       9.833762606833e-11       2.789542160475e-14       6.109494914247e-13       0.000000000000e+00       6.010685573900e-10       6.359066955289e-11      -4.416045157533e-13 
   15       9.816524729388e-11       1.782840961326e-14       4.912064127765e-13       0.000000000000e+00       5.373894205184e-10       5.750688891761e-11      -2.730371376071e-13 
   16       9.829257537753e-11       1.145557900949e-14       3.803917722997e-13       0.000000000000e+00       4.832373322027e-10       5.223380067824e-11      -1.362359411625e-13 
   17       9.870885324457e-11       8.158860573170e-15       2.817242023527e-13       0.000000000000e+00       4.367756978635e-10       4.762073096164e-11      -2.993552949511e-14 
   18       9.929688171101e-11       7.017153734354e-15       1.982288272856e-13       0.000000000000e+00       3.964419090797e-10       4.357712245998e-11       4.843252148081e-14 
   19       1.000481564575e-10       7.248328397585e-15       1.323294403855e-13       0.000000000000e+00       3.616006026304e-10       4.005288415590e-11       1.008231356989e-13 
   20       1.009388413799e-10       7.928632726322e-15       8.480641829242e-14       0.000000000000e+00       3.309088416651e-10       3.692074792226e-11       1.315111687106e-13 
   21       1.019407554194e-10       8.588814067662e-15       5.603138462777e-14       0.000000000000e+00       3.038859946535e-10       3.413437158138e-11       1.433903902064e-13 
   22       1.029949977931e-10       8.902258800003e-15       4.501039626074e-14       0.000000000000e+00       2.798876517395e-10       3.163175647055e-11       1.402061447073e-13 
   23       1.041044077843e-10       8.842054877162e-15       4.994374198256e-14       0.000000000000e+00       2.585849603541e-10       2.939790569144e-11       1.249804925564e-13 
   24       1.052701497622e-10       8.516189300768e-15       6.779966534618e-14       0.000000000000e+00       2.394863624542e-10       2.740457380201e-11       1.012376800209e-13 
   25       1.064851379865e-10       8.114802073221e-15       9.567825476040e-14       0.000000000000e+00       2.223679141580e-10       2.562865148359e-11       7.167871232967e-14 
   26       1.077259951765e-10       7.869654957424e-15       1.300483422898e-13       0.000000000000e+00       2.069204907856e-10       2.403021743768e-11       3.912150904392e-14 
   27       1.089878119942e-10       7.921371666949e-15       1.677063626025e-13       0.000000000000e+00       1.929592659342e-10       2.258632327598e-11       5.788720105195e-15 
   28       1.102638091901e-10       8.361721371235e-15       2.053071726507e-13       0.000000000000e+00       1.802440166312e-10       2.126938436816e-11      -2.620268436601e-14 
   29       1.115638051020e-10       9.143626161410e-15       2.406960522370e-13       0.000000000000e+00       1.687101510694e-10       2.007292839175e-11      -5.555089067695e-14 
   30       1.128930944870e-10       1.014887551730e-14       2.718407030704e-13       0.000000000000e+00       1.582341904702e-10       1.898516151147e-11      -8.115080883199e-14 
   31       1.142479158753e-10       1.122752649867e-14       2.967248756045e-13       0.000000000000e+00       1.486028877507e-10       1.798402051423e-11      -1.019884858687e-13 
   32       1.156324214303e-10       1.224180271479e-14       3.145552036800e-13       0.000000000000e+00       1.397667145603e-10       1.706044086932e-11      -1.176695284450e-13 
   33       1.170457367690e-10       1.303421151846e-14       3.250287785207e-13       0.000000000000e+00       1.316633525257e-10       1.620176005625e-11      -1.281175164683e-13 
   34       1.184806844685e-10       1.345267119911e-14       3.280998932126e-13       0.000000000000e+00       1.241796069989e-10       1.539095639441e-11      -1.334603026435e-13 
   35       1.199389427459e-10       1.348511722607e-14       3.241772924434e-13       0.000000000000e+00       1.172773129297e-10       1.462850923118e-11      -1.340369260397e-13 
   36       1.214196399882e-10       1.317299186014e-14       3.140390733005e-13       0.000000000000e+00       1.109012414415e-10       1.391722996932e-11      -1.304279812658e-13 
   37       1.229176378942e-10       1.257840072899e-14       2.986983803299e-13       0.000000000000e+00       1.049685809042e-10       1.325665594781e-11      -1.233851662766e-13 
   38       1.244340804227e-10       1.178774182973e-14       2.790292922896e-13       0.000000000000e+00       9.946409982029e-11       1.264495213810e-11      -1.135255676413e-13 
   39       1.259682688440e-10       1.091198788266e-14       2.560521355363e-13       0.000000000000e+00       9.437042279014e-11       1.207700787446e-11      -1.015625656697e-13 
   40       1.275141546111e-10       1.008779626912e-14       2.310557295084e-13       0.000000000000e+00       8.963908093667e-11       1.154347450444e-11      -8.840404020394e-14 
   41       1.290633824881e-10       9.449837861814e-15       2.054212353417e-13       0.000000000000e+00       8.520741782656e-11       1.103390487436e-11      -7.501696946294e-14 
   42       1.306168947171e-10       9.033060334821e-15       1.799833309440e-13       0.000000000000e+00       8.106244777511e-11       1.054825139658e-11      -6.193755515812e-14 
   43       1.321762058380e-10       8.841331550335e-15       1.554900671160e-13       0.000000000000e+00       7.719321935092e-11       1.008851553107e-11      -4.962309353273e-14 
   44       1.337398690429e-10       8.873594233401e-15       1.327821519620e-13       0.000000000000e+00       7.357165146295e-11       9.655466027930e-12      -3.858888857158e-14 
   45       1.353051243927e-10       9.122501241754e-15       1.126333834008e-13       0.000000000000e+00       7.016257598536e-11       9.248901894321e-12      -2.931810191798e-14 
   46       1.368741101102e-10       9.570780174727e-15       9.520596110847e-14       0.000000000000e+00       6.696066003566e-11       8.868802814275e-12      -2.195320828266e-14 
   47       1.384490180532e-10       1.019309953841e-14       8.043890231633e-14       0.000000000000e+00       6.396220187370e-11       8.514329370098e-12      -1.651659620062e-14 
   48       1.400301464973e-10       1.095649316222e-14       6.819192658344e-14       0.000000000000e+00       6.115399394726e-11       8.183386748991e-12      -1.299249992079e-14 
   49       1.416157234970e-10       1.181990354678e-14       5.823990494232e-14       0.000000000000e+00       5.851261586057e-11       7.872532801726e-12      -1.132418921015e-14 
   50       1.432035709039e-10       1.274241257069e-14       5.024342857019e-14       0.000000000000e+00       5.601149348051e-11       7.577969771032e-12      -1.139804910444e-14 
   51       1.447970387104e-10       1.371162686950e-14       4.366397475972e-14       0.000000000000e+00       5.364597548246e-11       7.299050133688e-12      -1.299724433474e-14 
   52       1.464003761850e-10       1.472220799587e-14       3.781611871796e-14       0.000000000000e+00       5.141384140206e-11       7.035563453425e-12      -1.583062003744e-14 
   53       1.480169441175e-10       1.576781177355e-14       3.188288515078e-14       0.000000000000e+00       4.930779694911e-11       6.786695909877e-12      -1.954136671105e-14 
   54       1.496491247992e-10       1.684104046217e-14       2.490907362148e-14       0.000000000000e+00       4.731513244132e-11       6.550989353481e-12      -2.370359307669e-14 
   55       1.512987119030e-10       1.793251255675e-14       1.596253905061e-14       0.000000000000e+00       4.542160332425e-11       6.326779975504e-12      -2.788912598381e-14 
   56       1.529683997722e-10       1.902791116846e-14       4.680242175590e-15       0.000000000000e+00       4.362498310664e-11       6.113735732741e-12      -3.189519409263e-14 
   57       1.546605064266e-10       2.011011861119e-14      -9.153841410673e-15       0.000000000000e+00       4.192427898511e-11       5.911629133556e-12      -3.556730280224e-14 
   58       1.563764563068e-10       2.115995410074e-14      -2.576491960151e-14       0.000000000000e+00       4.031563152480e-11       5.719869310736e-12      -3.873328680002e-14 
   59       1.581167089519e-10       2.215609154177e-14      -4.538751471105e-14       0.000000000000e+00       3.879213758999e-11       5.537479762696e-12      -4.120261904065e-14 
   60       1.598806876771e-10       2.307497731473e-14      -6.826559440884e-14       0.000000000000e+00       3.734367327479e-11       5.363076094678e-12      -4.276571972526e-14 
   61       1.616674060859e-10       2.389796350635e-14      -9.457084367478e-14       0.000000000000e+00       3.595970668120e-11       5.195243955892e-12      -4.324793464621e-14 
   62       1.634776732886e-10       2.463476460241e-14      -1.241357475871e-13       0.000000000000e+00       3.463887461423e-11       5.033822337970e-12      -4.268719176904e-14 
   63       1.653122593585e-10       2.530514397429e-14      -1.566605557868e-13       0.000000000000e+00       3.338125104888e-11       4.878870138900e-12      -4.119517682750e-14 
   64       1.671711929696e-10       2.593230685983e-14      -1.917874371322e-13       0.000000000000e+00       3.218546639129e-11       4.730282013666e-12      -3.890720570011e-14 
   65       1.690537122165e-10       2.654304709087e-14      -2.290980133101e-13       0.000000000000e+00       3.104862527505e-11       4.587778813365e-12      -3.598326800692e-14 
   66       1.709582154331e-10       2.716789382075e-14      -2.681108924470e-13       0.000000000000e+00       2.996622435748e-11       4.450898024320e-12      -3.260907070622e-14 
   67       1.728822120126e-10       2.784125825184e-14      -3.082792027201e-13       0.000000000000e+00       2.893207011584e-11       4.318984207197e-12      -2.899708169129e-14 
   68       1.748231654006e-10       2.859416390579e-14      -3.490859701444e-13       0.000000000000e+00       2.793993369864e-11       4.191394224486e-12      -2.535446273557e-14 
   69       1.767813303599e-10       2.943039893045e-14      -3.903582068722e-13       0.000000000000e+00       2.698908860576e-11       4.068182583146e-12      -2.177699039324e-14 
   70       1.787574049017e-10       3.034577300823e-14      -4.320123271372e-13       0.000000000000e+00       2.607975256925e-11       3.949538422886e-12      -1.833541668400e-14 
   71       1.807516630886e-10       3.133506408343e-14      -4.739619695175e-13       0.000000000000e+00       2.521141267909e-11       3.835579020168e-12      -1.510687117720e-14 
   72       1.827639286722e-10       3.239197541060e-14      -5.161180329551e-13       0.000000000000e+00       2.438278760534e-11       3.726345720637e-12      -1.217505776887e-14 
   73       1.847935487297e-10       3.350909260280e-14      -5.583887127755e-13       0.000000000000e+00       2.359178982040e-11       3.621799871543e-12      -9.630451458666e-15 
   74       1.868393673014e-10       3.467784067993e-14      -6.006795367077e-13       0.000000000000e+00       2.283548782123e-11       3.521818754163e-12      -7.570495126931e-15 
   75       1.888996990280e-10       3.588844111703e-14      -6.428934009035e-13       0.000000000000e+00       2.211006835160e-11       3.426191516230e-12      -6.099796311642e-15 
   76       1.909729758364e-10       3.713106865113e-14      -6.849740474819e-13       0.000000000000e+00       2.141178328434e-11       3.334674099749e-12      -5.298644603571e-15 
   77       1.930598814182e-10       3.839966018580e-14      -7.270455707068e-13       0.000000000000e+00       2.074007312049e-11       3.247174579688e-12      -5.121500934144e-15 
   78       1.951615598962e-10       3.968872565112e-14      -7.692985340666e-13       0.000000000000e+00       2.009494708704e-11       3.163594389753e-12      -5.480268821686e-15 
   79       1.972789649478e-10       4.099219181064e-14      -8.119496974287e-13       0.000000000000e+00       1.947603170496e-11       3.083769513697e-12      -6.273886063583e-15 
   80       1.994128472432e-10       4.230338391165e-14      -8.552429438628e-13       0.000000000000e+00       1.888255320274e-11       3.007467627498e-12      -7.387871901892e-15 
   81       2.015637418845e-10       4.361500733551e-14      -8.994502064645e-13       0.000000000000e+00       1.831331992987e-11       2.934385241528e-12      -8.693874188957e-15 
   82       2.037319558438e-10       4.491912924801e-14      -9.448723951783e-13       0.000000000000e+00       1.776670477026e-11       2.864144842727e-12      -1.004921655302e-14 
   83       2.059175554020e-10       4.620716024969e-14      -9.918403236207e-13       0.000000000000e+00       1.724062755581e-11       2.796292036776e-12      -1.129644556385e-14 
   84       2.081205644825e-10       4.747186976997e-14      -1.040636608950e-12       0.000000000000e+00       1.673306076212e-11       2.730397945195e-12      -1.229442113952e-14 
   85       2.103416249446e-10       4.871385632865e-14      -1.091244465073e-12       0.000000000000e+00       1.624368144173e-11       2.666392160834e-12      -1.301850167213e-14 
   86       2.125814232309e-10       4.993612125072e-14      -1.143558770331e-12       0.000000000000e+00       1.577246217573e-11       2.604280006302e-12      -1.347621444579e-14 
   87       2.148404803207e-10       5.114214588933e-14      -1.197460996313e-12       0.000000000000e+00       1.531916347805e-11       2.544041113899e-12      -1.367726525178e-14 
   88       2.171191427132e-10       5.233590745671e-14      -1.252818806495e-12       0.000000000000e+00       1.488332500363e-11       2.485628336777e-12      -1.363361569261e-14 
   89       2.194175734104e-10       5.352189485504e-14      -1.309485654881e-12       0.000000000000e+00       1.446425675655e-11       2.428966660104e-12      -1.335956048621e-14 
   90       2.217357429002e-10       5.470512450740e-14      -1.367300384640e-12       0.000000000000e+00       1.406103029818e-11       2.373952112227e-12      -1.287180476998e-14 
   91       2.240734201397e-10       5.589115618859e-14      -1.426086826746e-12       0.000000000000e+00       1.367246995531e-11       2.320450675837e-12      -1.218954140497e-14 
   92       2.264301635376e-10       5.708610885610e-14      -1.485653398616e-12       0.000000000000e+00       1.329714402830e-11       2.268297199129e-12      -1.133452827996e-14 
   93       2.288055557141e-10       5.829516131262e-14      -1.545812707387e-12       0.000000000000e+00       1.293370454991e-11       2.217341924436e-12      -1.033103242077e-14 
   94       2.311999677521e-10       5.951776185779e-14      -1.606444604109e-12       0.000000000000e+00       1.258198411121e-11       2.167600444029e-12      -9.205484794642e-15 
   95       2.336138937525e-10       6.075172408511e-14      -1.667441914958e-12       0.000000000000e+00       1.224204851068e-11       2.119124389476e-12      -7.986916274402e-15 
   96       2.360477117054e-10       6.199467295410e-14      -1.728691156521e-12       0.000000000000e+00       1.191385894834e-11       2.071955394346e-12      -6.707160671726e-15 
   97       2.385016778189e-10       6.324403982274e-14      -1.790072409040e-12       0.000000000000e+00       1.159726801845e-11       2.026124659021e-12      -5.400930212891e-15 
   98       2.409759208486e-10       6.449705747986e-14      -1.851459189650e-12       0.000000000000e+00       1.129201570211e-11       1.981652515487e-12      -4.105891014559e-15 
   99       2.434704364271e-10       6.575075517765e-14      -1.912718325618e-12       0.000000000000e+00       1.099772535989e-11       1.938547992140e-12      -2.862738559557e-15 
  100       2.459850813934e-10       6.700195366400e-14      -1.973709827583e-12       0.000000000000e+00       1.071389972451e-11       1.896808378586e-12      -1.715273172652e-15 
  101       2.485195681215e-10       6.824726021500e-14      -2.034286762796e-12       0.000000000000e+00       1.043991689345e-11       1.856418790438e-12      -7.104754963281e-16 
  102       2.510734588507e-10       6.948306366732e-14      -2.094295128357e-12       0.000000000000e+00       1.017502632159e-11       1.817351734121e-12       1.014180334327e-16 
  103       2.536461600143e-10       7.070552945068e-14      -2.153573724458e-12       0.000000000000e+00       9.918344813873e-12       1.779566671668e-12       6.668397113754e-16 
  104       2.562371179604e-10       7.191115419362e-14      -2.211987458692e-12       0.000000000000e+00       9.669056767310e-12       1.743017299626e-12       9.427499569063e-16 
  105       2.588464484393e-10       7.309852556425e-14      -2.269532655742e-12       0.000000000000e+00       9.427054334694e-12       1.707675442952e-12       9.405102735654e-16 
  106       2.614743819745e-10       7.426679200411e-14      -2.326245803406e-12       0.000000000000e+00       9.192376669384e-12       1.673509592519e-12       6.878237684971e-16 
  107       2.641210666494e-10       7.541512555091e-14      -2.382171629578e-12       0.000000000000e+00       8.965011656590e-12       1.640477133049e-12       2.154062374012e-16 
