# dimensionless total [l(l+1)/2pi] C_l's
# for l=2 to 3000, i.e. number of multipoles equal to 2999
#
# -> if you prefer output in CAMB/HealPix/LensPix units/order, set 'format' to 'camb' in input file
# -> if you don't want to see such a header, set 'headers' to 'no' in input file
# -> for CMB lensing (phi), these are C_l^phi-phi for the lensing potential.
#    Remember the conversion factors:
#    C_l^dd (deflection) = l(l+1) C_l^phi-phi
#    C_l^gg (shear/convergence) = 1/4 (l(l+1))^2 C_l^phi-phi
#
# 1:l     2:TT                     3:EE                     4:TE                     5:BB                     6:phiphi                 7:TPhi                   8:Ephi               
    2       1.064353451109e-10       1.919785369196e-15       3.257981092660e-13       0.000000000000e+00       1.462581042316e-08      -1.104966611273e-10      -1.336763027802e-12 
    3       1.048295514654e-10       3.539453306392e-15       3.845603808113e-13       0.000000000000e+00       8.961393880100e-09      -4.883468999212e-11      -1.196796825624e-12 
    4       1.034720628914e-10       4.616984890486e-15       3.960024435002e-13       0.000000000000e+00       6.326677721830e-09      -2.430242722463e-11      -1.002678298626e-12 
    5       1.024963801559e-10       4.852993792302e-15       3.789774545862e-13       0.000000000000e+00       4.812675358481e-09      -1.263579863748e-11      -8.004548908054e-13 
    6       1.018952178494e-10       4.339157931190e-15       3.464240966292e-13       0.000000000000e+00       3.833289775034e-09      -6.362628844874e-12      -6.067972009732e-13 
    7       1.016544062379e-10       3.399904387043e-15       3.080777319444e-13       0.000000000000e+00       3.151580221697e-09      -2.827816231235e-12      -4.323922185318e-13 
    8       1.017439325367e-10       2.390021514770e-15       2.699311326336e-13       0.000000000000e+00       2.653497417098e-09      -8.068845426011e-13      -2.832317396243e-13 
    9       1.021101585564e-10       1.563054649167e-15       2.355254986920e-13       0.000000000000e+00       2.275421719118e-09       4.041927658774e-13      -1.622631980729e-13 
   10       1.026926418305e-10       1.024531071613e-15       2.068664299205e-13       0.000000000000e+00       1.976336809788e-09       1.178262249055e-12      -7.012014398357e-14 
   11       1.034440423089e-10       7.544294928985e-16       1.849319109123e-13       0.000000000000e+00       1.509120970627e-09       2.631011098574e-12      -5.450790603731e-15 
   12       1.043393035610e-10       6.647061347163e-16       1.700015773651e-13       0.000000000000e+00       1.329181984736e-09       2.643947987133e-12       3.418119824995e-14 
   13       1.053511312913e-10       6.582747608442e-16       1.617977361454e-13       0.000000000000e+00       1.180780113498e-09       2.663269556744e-12       5.348467067511e-14 
   14       1.064582118862e-10       6.676326415355e-16       1.596105133349e-13       0.000000000000e+00       1.056738655513e-09       2.698675469902e-12       5.687157033705e-14 
   15       1.076159085323e-10       6.666017101238e-16       1.625105866875e-13       0.000000000000e+00       9.518507838739e-10       2.721051926643e-12       4.893827503798e-14 
   16       1.088245347381e-10       6.610547626562e-16       1.694814097583e-13       0.000000000000e+00       8.622592107971e-10       2.629028567471e-12       3.391438432904e-14 
   17       1.100764394545e-10       6.705831938757e-16       1.794526830823e-13       0.000000000000e+00       7.850503458963e-10       2.554601264288e-12       1.590408722494e-14 
   18       1.113451253698e-10       7.129535492596e-16       1.913343492881e-13       0.000000000000e+00       7.176718833978e-10       2.511241081933e-12      -1.863826973188e-15 
   19       1.126448214384e-10       7.923897636947e-16       2.043843859294e-13       0.000000000000e+00       6.593111791985e-10       2.487916547222e-12      -1.735177831528e-14 
   20       1.139554697544e-10       9.061746947288e-16       2.177927992834e-13       0.000000000000e+00       6.076389267570e-10       2.480393664915e-12      -2.888227108486e-14 
   21       1.152888747276e-10       1.046704258312e-15       2.311404277875e-13       0.000000000000e+00       5.619053544760e-10       2.467262377214e-12      -3.598565312871e-14 
   22       1.166351842240e-10       1.204038037623e-15       2.441109934098e-13       0.000000000000e+00       5.211236170373e-10       2.422799084085e-12      -3.885906856698e-14 
   23       1.179778445048e-10       1.377127973269e-15       2.565614150869e-13       0.000000000000e+00       4.847720946659e-10       2.355995424247e-12      -3.795898554681e-14 
   24       1.192844694878e-10       1.568557711604e-15       2.684152041804e-13       0.000000000000e+00       4.520304315873e-10       2.288402127135e-12      -3.409584864268e-14 
   25       1.205824139237e-10       1.784282003755e-15       2.796621385021e-13       0.000000000000e+00       4.225465469448e-10       2.233018587502e-12      -2.824886221640e-14 
   26       1.219002396513e-10       2.031234772974e-15       2.903428878104e-13       0.000000000000e+00       3.958247650265e-10       2.197154136904e-12      -2.161981615617e-14 
   27       1.232284137934e-10       2.312227603781e-15       3.005785194449e-13       0.000000000000e+00       3.715680336388e-10       2.170216130716e-12      -1.520090058132e-14 
   28       1.245382327832e-10       2.628320014635e-15       3.105095497982e-13       0.000000000000e+00       3.493785848852e-10       2.135987774717e-12      -9.920234860524e-15 
   29       1.258371741534e-10       2.979142294570e-15       3.201367206432e-13       0.000000000000e+00       3.291595002945e-10       2.091229249357e-12      -6.145367361256e-15 
   30       1.271338872630e-10       3.363233851099e-15       3.294087431785e-13       0.000000000000e+00       3.107105234379e-10       2.036562061798e-12      -4.054612433396e-15 
   31       1.284270906507e-10       3.778966126854e-15       3.382555314788e-13       0.000000000000e+00       2.936748770688e-10       1.973533381813e-12      -3.726875443745e-15 
   32       1.297198220490e-10       4.227388189260e-15       3.465791105266e-13       0.000000000000e+00       2.779767994064e-10       1.907615279379e-12      -4.921193966247e-15 
   33       1.310079328940e-10       4.710432097672e-15       3.542555888478e-13       0.000000000000e+00       2.635161838418e-10       1.846451256221e-12      -7.195716244657e-15 
   34       1.322807097416e-10       5.229893899689e-15       3.611364079508e-13       0.000000000000e+00       2.501030940802e-10       1.797121680978e-12      -1.001301588070e-14 
   35       1.335407950157e-10       5.786410109518e-15       3.670523851422e-13       0.000000000000e+00       2.376773973686e-10       1.759017999375e-12      -1.295215596033e-14 
   36       1.347895633110e-10       6.380104434662e-15       3.718074645126e-13       0.000000000000e+00       2.261477017402e-10       1.728373619616e-12      -1.555728404883e-14 
   37       1.360245673034e-10       7.011064206413e-15       3.752094007983e-13       0.000000000000e+00       2.153733674639e-10       1.700901093422e-12      -1.738020088302e-14 
   38       1.372516460464e-10       7.680113144003e-15       3.771859015511e-13       0.000000000000e+00       2.053325787389e-10       1.674782045685e-12      -1.834012763847e-14 
   39       1.384757350414e-10       8.388284144803e-15       3.777064944275e-13       0.000000000000e+00       1.959989796832e-10       1.648560012565e-12      -1.848179406685e-14 
   40       1.396969430906e-10       9.136613541720e-15       3.767524362099e-13       0.000000000000e+00       1.872903787036e-10       1.620293726148e-12      -1.788231430602e-14 
   41       1.409126139418e-10       9.926150855735e-15       3.743172064490e-13       0.000000000000e+00       1.790988158088e-10       1.588225832734e-12      -1.666088769934e-14 
   42       1.421256001816e-10       1.075798967263e-14       3.704062855910e-13       0.000000000000e+00       1.714043679834e-10       1.553137083349e-12      -1.500565150536e-14 
   43       1.433377853019e-10       1.163324835748e-14       3.650386321940e-13       0.000000000000e+00       1.641901071836e-10       1.516698141950e-12      -1.315980411838e-14 
   44       1.445473729610e-10       1.255306357912e-14       3.582477262460e-13       0.000000000000e+00       1.574078382648e-10       1.480843487568e-12      -1.141812943539e-14 
   45       1.457510381367e-10       1.351845711812e-14       3.500675552331e-13       0.000000000000e+00       1.509963068295e-10       1.447374119355e-12      -1.006453138934e-14 
   46       1.469519845887e-10       1.452988532783e-14       3.404837708171e-13       0.000000000000e+00       1.449482435431e-10       1.416594470141e-12      -9.155301852812e-15 
   47       1.481536919972e-10       1.558755749137e-14       3.294692332132e-13       0.000000000000e+00       1.392590831769e-10       1.388289324226e-12      -8.676159247452e-15 
   48       1.493574132936e-10       1.669155268028e-14       3.169974407619e-13       0.000000000000e+00       1.339066922042e-10       1.362087509079e-12      -8.601336069419e-15 
   49       1.505619637742e-10       1.784181347523e-14       3.030424448969e-13       0.000000000000e+00       1.288500460677e-10       1.337450837752e-12      -8.892807419233e-15 
   50       1.517652404383e-10       1.903821228540e-14       2.875740497310e-13       0.000000000000e+00       1.240421489958e-10       1.313804832367e-12      -9.493246110284e-15 
   51       1.529697554473e-10       2.028078609693e-14       2.705420719576e-13       0.000000000000e+00       1.194759965331e-10       1.290998379696e-12      -1.030442343990e-14 
   52       1.541782401312e-10       2.156955459016e-14       2.518876614941e-13       0.000000000000e+00       1.151488025951e-10       1.268949730179e-12      -1.120161201826e-14 
   53       1.553919196470e-10       2.290445031518e-14       2.315473437955e-13       0.000000000000e+00       1.110482103153e-10       1.247511340196e-12      -1.203830538696e-14 
   54       1.566103835154e-10       2.428531582889e-14       2.094527129224e-13       0.000000000000e+00       1.071516395499e-10       1.226465486534e-12      -1.264515132904e-14 
   55       1.578326539083e-10       2.571192724423e-14       1.855444161329e-13       0.000000000000e+00       1.034335518653e-10       1.205598113645e-12      -1.287338023574e-14 
   56       1.590609978757e-10       2.718407828681e-14       1.598188790583e-13       0.000000000000e+00       9.989085375581e-11       1.184951905148e-12      -1.274016760325e-14 
   57       1.602978353925e-10       2.870151210518e-14       1.322926504481e-13       0.000000000000e+00       9.652266123377e-11       1.164628399108e-12      -1.231751430950e-14 
   58       1.615445435840e-10       3.026389489441e-14       1.029893720685e-13       0.000000000000e+00       9.332259871908e-11       1.144713954996e-12      -1.169156776646e-14 
   59       1.628013739280e-10       3.187081406226e-14       7.194002858225e-14       0.000000000000e+00       9.027845501727e-11       1.125278416184e-12      -1.096328880381e-14 
   60       1.640673694570e-10       3.352177639531e-14       3.918319742911e-14       0.000000000000e+00       8.737183929763e-11       1.106373772441e-12      -1.024911855253e-14 
   61       1.653413468898e-10       3.521620651062e-14       4.757145499564e-15       0.000000000000e+00       8.458352073962e-11       1.088037610958e-12      -9.656865053383e-15 
   62       1.666252879486e-10       3.695344595293e-14      -3.132651915025e-14       0.000000000000e+00       8.191162631366e-11       1.070307400448e-12      -9.205529570614e-15 
   63       1.679215657970e-10       3.873275063973e-14      -6.906199666727e-14       0.000000000000e+00       7.935693580402e-11       1.053207054433e-12      -8.888585931900e-15 
   64       1.692318992435e-10       4.055328876929e-14      -1.084416727116e-13       0.000000000000e+00       7.691739813996e-11       1.036741263550e-12      -8.697055804705e-15 
   65       1.705573037329e-10       4.241413899590e-14      -1.494561272715e-13       0.000000000000e+00       7.458796771238e-11       1.020894309984e-12      -8.619389320519e-15 
   66       1.718980423371e-10       4.431428860508e-14      -1.920941434782e-13       0.000000000000e+00       7.236044069051e-11       1.005628881900e-12      -8.641345699099e-15 
   67       1.732535767470e-10       4.625263168885e-14      -2.363427164207e-13       0.000000000000e+00       7.022329133852e-11       9.908848878735e-13      -8.745873872721e-15 
   68       1.746232674066e-10       4.822798810831e-14      -2.821882733076e-13       0.000000000000e+00       6.816489152435e-11       9.765949802614e-13      -8.914605466606e-15 
   69       1.760087482029e-10       5.023916892239e-14      -3.296206013450e-13       0.000000000000e+00       6.618429265792e-11       9.627374279525e-13      -9.132951869669e-15 
   70       1.774119471200e-10       5.228492099950e-14      -3.786297352426e-13       0.000000000000e+00       6.428234444757e-11       9.492918764464e-13      -9.385830258088e-15 
   71       1.788343503565e-10       5.436390613321e-14      -4.292048553684e-13       0.000000000000e+00       6.245842923616e-11       9.362228422004e-13      -9.656065882740e-15 
   72       1.802769724767e-10       5.647469974912e-14      -4.813343275451e-13       0.000000000000e+00       6.071038484442e-11       9.234789544004e-13      -9.924313930175e-15 
   73       1.817403265608e-10       5.861578961170e-14      -5.350057428451e-13       0.000000000000e+00       5.903442741425e-11       9.109921967316e-13      -1.016898138359e-14 
   74       1.832243943569e-10       6.078557453123e-14      -5.902059573865e-13       0.000000000000e+00       5.742507425203e-11       8.986771491491e-13      -1.036614888380e-14 
   75       1.847285964310e-10       6.298236307059e-14      -6.469211321285e-13       0.000000000000e+00       5.587506667196e-11       8.864302296490e-13      -1.048949259024e-14 
   76       1.862523040131e-10       6.520442798192e-14      -7.051327379129e-13       0.000000000000e+00       5.437725395243e-11       8.741597102237e-13      -1.051779454800e-14 
   77       1.877965482719e-10       6.745018383524e-14      -7.648046415747e-13       0.000000000000e+00       5.293081238454e-11       8.618837599617e-13      -1.045922764737e-14 
   78       1.893625699527e-10       6.971803958236e-14      -8.258937262809e-13       0.000000000000e+00       5.153602538785e-11       8.496489860949e-13      -1.033137775572e-14 
   79       1.909512868970e-10       7.200634555286e-14      -8.883536751261e-13       0.000000000000e+00       5.019238666065e-11       8.375011207757e-13      -1.015412429546e-14 
   80       1.925632753013e-10       7.431339330372e-14      -9.521349281923e-13       0.000000000000e+00       4.889856323741e-11       8.254848938972e-13      -9.949717713503e-15 
   81       1.941987509757e-10       7.663741546897e-14      -1.017184639608e-12       0.000000000000e+00       4.765235854639e-11       8.136439059138e-13      -9.742856950677e-15 
   82       1.958575506030e-10       7.897658560936e-14      -1.083446634609e-12       0.000000000000e+00       4.645067546710e-11       8.020205006615e-13      -9.560766911179e-15 
   83       1.975391129976e-10       8.132901806203e-14      -1.150861366597e-12       0.000000000000e+00       4.528947938786e-11       7.906556381781e-13      -9.433275932016e-15 
   84       1.992428655235e-10       8.369273509472e-14      -1.219369149815e-12       0.000000000000e+00       4.416483082524e-11       7.795831570986e-13      -9.385497269214e-15 
   85       2.009694980040e-10       8.606556244157e-14      -1.288920567186e-12       0.000000000000e+00       4.307626089338e-11       7.688117475475e-13      -9.414309858868e-15 
   86       2.027198666203e-10       8.844521609321e-14      -1.359467717166e-12       0.000000000000e+00       4.202389028557e-11       7.583397426611e-13      -9.508102472512e-15 
   87       2.044945957731e-10       9.082933276288e-14      -1.430961103470e-12       0.000000000000e+00       4.100739077842e-11       7.481602450919e-13      -9.653776892985e-15 
   88       2.062940661514e-10       9.321546918658e-14      -1.503349647186e-12       0.000000000000e+00       4.002596626518e-11       7.382609055359e-13      -9.836701081625e-15 
   89       2.081184028001e-10       9.560110142322e-14      -1.576580698883e-12       0.000000000000e+00       3.907833378913e-11       7.286237012603e-13      -1.004066234548e-14 
   90       2.099674631886e-10       9.798362415475e-14      -1.650600050728e-12       0.000000000000e+00       3.816270457694e-11       7.192247146310e-13      -1.024782050448e-14 
   91       2.118408252791e-10       1.003603499864e-13      -1.725351948594e-12       0.000000000000e+00       3.727676507201e-11       7.100339116398e-13      -1.043866105870e-14 
   92       2.137377755946e-10       1.027285087466e-13      -1.800779104173e-12       0.000000000000e+00       3.641765796781e-11       7.010149204324e-13      -1.059194835548e-14 
   93       2.156576259989e-10       1.050853855527e-13      -1.876823632383e-12       0.000000000000e+00       3.558269357028e-11       6.921351566561e-13      -1.068930522725e-14 
   94       2.176007444501e-10       1.074287602796e-13      -1.953429998540e-12       0.000000000000e+00       3.477164746612e-11       6.833984225474e-13      -1.072984152239e-14 
   95       2.195676579335e-10       1.097565332006e-13      -2.030542538898e-12       0.000000000000e+00       3.398477496450e-11       6.748168240830e-13      -1.071764935458e-14 
   96       2.215587302426e-10       1.120665933004e-13      -2.108104599330e-12       0.000000000000e+00       3.322210273724e-11       6.664007826380e-13      -1.065738911893e-14 
   97       2.235741545596e-10       1.143568194802e-13      -2.186058560141e-12       0.000000000000e+00       3.248341987728e-11       6.581589555436e-13      -1.055430616598e-14 
   98       2.256139460365e-10       1.166250817626e-13      -2.264345860885e-12       0.000000000000e+00       3.176826895717e-11       6.500981566426e-13      -1.041424747565e-14 
   99       2.276779343744e-10       1.188692424962e-13      -2.342907025173e-12       0.000000000000e+00       3.107593708752e-11       6.422232768469e-13      -1.024367833131e-14 
  100       2.297657564050e-10       1.210871575611e-13      -2.421681685492e-12       0.000000000000e+00       3.040544697543e-11       6.345372046934e-13      -1.004969899374e-14 
  101       2.318768486704e-10       1.232766775735e-13      -2.500608608016e-12       0.000000000000e+00       2.975554798301e-11       6.270407469013e-13      -9.840061375165e-15 
  102       2.340104400037e-10       1.254356490908e-13      -2.579625717417e-12       0.000000000000e+00       2.912470718580e-11       6.197325489282e-13      -9.623185713223e-15 
  103       2.361655441093e-10       1.275619158167e-13      -2.658670121683e-12       0.000000000000e+00       2.851110043125e-11       6.126090155269e-13      -9.408177244993e-15 
  104       2.383412096279e-10       1.296533185222e-13      -2.737677683166e-12       0.000000000000e+00       2.791304540434e-11       6.056649498430e-13      -9.203116568476e-15 
  105       2.405373247820e-10       1.317076922039e-13      -2.816581612306e-12       0.000000000000e+00       2.733038670863e-11       5.988957401396e-13      -9.009631792519e-15 
  106       2.427539081000e-10       1.337228707864e-13      -2.895313729317e-12       0.000000000000e+00       2.676328209088e-11       5.922953217373e-13      -8.827620835196e-15 
  107       2.449908561034e-10       1.356966895485e-13      -2.973804920571e-12       0.000000000000e+00       2.621177310707e-11       5.858554141671e-13      -8.656909991759e-15 
