# dimensionless total [l(l+1)/2pi] C_l's
# for l=2 to 3000, i.e. number of multipoles equal to 2999
#
# -> if you prefer output in CAMB/HealPix/LensPix units/order, set 'format' to 'camb' in input file
# -> if you don't want to see such a header, set 'headers' to 'no' in input file
# -> for CMB lensing (phi), these are C_l^phi-phi for the lensing potential.
#    Remember the conversion factors:
#    C_l^dd (deflection) = l(l+1) C_l^phi-phi
#    C_l^gg (shear/convergence) = 1/4 (l(l+1))^2 C_l^phi-phi
#
# 1:l     2:TT                     3:EE                     4:TE                     5:BB                     6:phiphi                 7:TPhi                   8:Ephi               
    2       2.651068347271e-10       8.323492316523e-15       4.517126311526e-13       0.000000000000e+00       5.247030698124e-09       8.073249194944e-10      -2.147486486808e-12 
    3       2.220363165305e-10       5.639198095359e-15       4.933465147803e-13       0.000000000000e+00       3.178400787479e-09       5.337053212959e-10      -8.628725940759e-13 
    4       1.929031515312e-10       2.612162108045e-15       3.981665150508e-13       0.000000000000e+00       2.173896157162e-09       3.834886686409e-10      -6.816495630231e-14 
    5       1.737086895958e-10       1.198313916905e-15       2.792093946065e-13       0.000000000000e+00       1.596083581981e-09       2.906733870975e-10       2.377171775140e-13 
    6       1.610200772108e-10       6.767135827478e-16       1.865547154614e-13       0.000000000000e+00       1.226593780622e-09       2.286994438562e-10       2.539036001260e-13 
    7       1.526345542102e-10       4.192139219447e-16       1.316470721546e-13       0.000000000000e+00       9.737732173284e-10       1.849821560661e-10       1.675591087476e-13 
    8       1.471246230767e-10       2.618635950874e-16       1.049277278357e-13       0.000000000000e+00       7.921351374340e-10       1.527768124810e-10       8.654094168414e-14 
    9       1.436419035542e-10       1.745749181670e-16       9.289091206632e-14       0.000000000000e+00       6.567199308901e-10       1.282384679766e-10       4.379223144135e-14 
   10       1.416632157440e-10       1.319084452884e-16       8.658361369596e-14       0.000000000000e+00       5.528400846853e-10       1.090985717389e-10       3.059485770982e-14 
   11       1.408508812776e-10       1.158640862344e-16       8.298337739676e-14       0.000000000000e+00       4.695419285610e-10       9.472867651796e-11       2.894948145948e-14 
   12       1.409329621169e-10       1.179334569858e-16       8.243992334709e-14       0.000000000000e+00       4.048860870442e-10       8.232076392447e-11       2.630307360159e-14 
   13       1.416411860620e-10       1.336900954198e-16       8.548840293069e-14       0.000000000000e+00       3.522635086651e-10       7.214201183129e-11       2.116375061034e-14 
   14       1.429791837437e-10       1.598864826653e-16       9.161917682110e-14       0.000000000000e+00       3.088594311920e-10       6.368299020684e-11       1.572794741873e-14 
   15       1.447749850606e-10       1.937522835949e-16       9.932918938926e-14       0.000000000000e+00       2.726423035677e-10       5.661689273946e-11       1.201399200324e-14 
   16       1.469478324073e-10       2.340594947153e-16       1.069580423483e-13       0.000000000000e+00       2.421131306867e-10       5.065193969263e-11       1.019011739750e-14 
   17       1.495290958993e-10       2.817066867299e-16       1.138953302414e-13       0.000000000000e+00       2.161505607941e-10       4.548581495274e-11       9.199474583526e-15 
   18       1.523601966982e-10       3.380744870269e-16       1.204796140492e-13       0.000000000000e+00       1.938111563841e-10       4.102854403415e-11       8.276894966415e-15 
   19       1.554539381120e-10       4.044555467687e-16       1.269460074216e-13       0.000000000000e+00       1.746784864299e-10       3.722797558450e-11       7.313628253971e-15 
   20       1.588197262685e-10       4.819952737230e-16       1.334036525648e-13       0.000000000000e+00       1.579710484106e-10       3.391808248002e-11       6.370670538024e-15 
   21       1.624226761744e-10       5.710118664661e-16       1.396313471337e-13       0.000000000000e+00       1.433900766641e-10       3.101992643866e-11       5.593249147317e-15 
   22       1.661775337051e-10       6.714855528751e-16       1.452612093367e-13       0.000000000000e+00       1.305502778654e-10       2.843695170310e-11       5.115886098206e-15 
   23       1.701020334361e-10       7.839421332597e-16       1.500441401673e-13       0.000000000000e+00       1.192502627755e-10       2.614395731000e-11       4.800833262759e-15 
   24       1.742149018345e-10       9.090681196884e-16       1.538341807661e-13       0.000000000000e+00       1.092048404401e-10       2.410864702071e-11       4.410031862448e-15 
   25       1.784917691538e-10       1.047572625649e-15       1.568919755524e-13       0.000000000000e+00       1.002772862679e-10       2.230128858869e-11       3.866149442125e-15 
   26       1.828801675240e-10       1.200198273194e-15       1.595747308534e-13       0.000000000000e+00       9.228745323947e-11       2.067540344634e-11       3.146111921391e-15 
   27       1.873875493398e-10       1.367840028377e-15       1.617773956210e-13       0.000000000000e+00       8.512616898098e-11       1.921067338116e-11       2.264122565511e-15 
   28       1.920260934537e-10       1.551443041121e-15       1.632476085631e-13       0.000000000000e+00       7.865693682163e-11       1.788443033873e-11       1.248214019657e-15 
   29       1.967970666232e-10       1.751861531804e-15       1.638685535896e-13       0.000000000000e+00       7.283779500657e-11       1.668832263816e-11       1.124045917640e-16 
   30       2.016810960226e-10       1.969922908373e-15       1.635558344028e-13       0.000000000000e+00       6.759694058838e-11       1.560597370220e-11      -1.130761813139e-15 
   31       2.066464605666e-10       2.206427156200e-15       1.622351931442e-13       0.000000000000e+00       6.281622832371e-11       1.461176818581e-11      -2.458328735710e-15 
   32       2.116958359048e-10       2.462052840128e-15       1.599159931464e-13       0.000000000000e+00       5.846486177813e-11       1.370134204395e-11      -3.813726643335e-15 
   33       2.168340744729e-10       2.737409017284e-15       1.566467282575e-13       0.000000000000e+00       5.450668194665e-11       1.287068589083e-11      -5.119828980636e-15 
   34       2.220576338852e-10       3.033078901899e-15       1.524585324724e-13       0.000000000000e+00       5.087982177937e-11       1.211032887202e-11      -6.296548993623e-15 
   35       2.273648026410e-10       3.349703551173e-15       1.472302092281e-13       0.000000000000e+00       4.756142979316e-11       1.141550920982e-11      -7.304663015876e-15 
   36       2.327470202180e-10       3.687922611066e-15       1.407734069518e-13       0.000000000000e+00       4.452050632931e-11       1.077848062082e-11      -8.117198752567e-15 
   37       2.381908453061e-10       4.048410934408e-15       1.329023246193e-13       0.000000000000e+00       4.171240740820e-11       1.018850869996e-11      -8.714809048740e-15 
   38       2.436977819718e-10       4.432087591463e-15       1.235594436226e-13       0.000000000000e+00       3.912710237243e-11       9.642972758182e-12      -9.108672970507e-15 
   39       2.492696602059e-10       4.839977831810e-15       1.127305926699e-13       0.000000000000e+00       3.675393260535e-11       9.139288842639e-12      -9.326194603601e-15 
   40       2.549025344393e-10       5.273160866994e-15       1.004121079745e-13       0.000000000000e+00       3.456701848214e-11       8.671575436934e-12      -9.405901507989e-15 
   41       2.605893856887e-10       5.732628358998e-15       8.660869651768e-14       0.000000000000e+00       3.253366469871e-11       8.232704353267e-12      -9.390819607004e-15 
   42       2.663307779455e-10       6.218797602910e-15       7.132463828872e-14       0.000000000000e+00       3.064600956022e-11       7.821936013800e-12      -9.304070326461e-15 
   43       2.721266261381e-10       6.731844685040e-15       5.457080602600e-14       0.000000000000e+00       2.889747833614e-11       7.439293842714e-12      -9.166683411274e-15 
   44       2.779727876587e-10       7.271828242755e-15       3.636764562041e-14       0.000000000000e+00       2.727333207761e-11       7.083325110053e-12      -9.004629065682e-15 
   45       2.838633811327e-10       7.838822897864e-15       1.673054233150e-14       0.000000000000e+00       2.575552287125e-11       6.751726681765e-12      -8.843761829993e-15 
   46       2.897994946740e-10       8.433383757340e-15      -4.380357391961e-15       0.000000000000e+00       2.434049704510e-11       6.443733605888e-12      -8.692161432477e-15 
   47       2.957824131371e-10       9.056208775079e-15      -2.702420401583e-14       0.000000000000e+00       2.302562694146e-11       6.158236544877e-12      -8.553009354055e-15 
   48       3.018109023515e-10       9.708011323756e-15      -5.126607182028e-14       0.000000000000e+00       2.180386394891e-11       5.893018514878e-12      -8.429463144230e-15 
   49       3.078809726224e-10       1.038952122843e-14      -7.717737784137e-14       0.000000000000e+00       2.066341563730e-11       5.644675645926e-12      -8.324640473888e-15 
   50       3.139876195950e-10       1.110140833624e-14      -1.048231593019e-13       0.000000000000e+00       1.959108070748e-11       5.409558638216e-12      -8.240615563194e-15 
   51       3.201311526024e-10       1.184402636980e-14      -1.342188627376e-13       0.000000000000e+00       1.858407007148e-11       5.187082233264e-12      -8.175124319697e-15 
   52       3.263121752725e-10       1.261760133235e-14      -1.653625499338e-13       0.000000000000e+00       1.764083637889e-11       4.977177090423e-12      -8.123937281496e-15 
   53       3.325296182550e-10       1.342230034505e-14      -1.982468195541e-13       0.000000000000e+00       1.675754948811e-11       4.779317137806e-12      -8.081708132322e-15 
   54       3.387805957738e-10       1.425822903522e-14      -2.328586076580e-13       0.000000000000e+00       1.592794573377e-11       4.592488365237e-12      -8.041911277868e-15 
   55       3.450617388897e-10       1.512546616509e-14      -2.691854415344e-13       0.000000000000e+00       1.514510027890e-11       4.415505711100e-12      -7.998435425272e-15 
   56       3.513739117669e-10       1.602418357516e-14      -3.072364774946e-13       0.000000000000e+00       1.440760507935e-11       4.248127400650e-12      -7.950970915273e-15 
   57       3.577184157695e-10       1.695455146262e-14      -3.470263399095e-13       0.000000000000e+00       1.371466163842e-11       4.090162771667e-12      -7.900851379064e-15 
   58       3.640955313612e-10       1.791670261590e-14      -3.885691766000e-13       0.000000000000e+00       1.306421822940e-11       3.941131173422e-12      -7.849517041704e-15 
   59       3.705044321920e-10       1.891073125381e-14      -4.318787107823e-13       0.000000000000e+00       1.245289408836e-11       3.800244321733e-12      -7.798516818052e-15 
   60       3.769430991860e-10       1.993669186473e-14      -4.769682930131e-13       0.000000000000e+00       1.187590360696e-11       3.666388654014e-12      -7.749510408707e-15 
   61       3.834092586578e-10       2.099460387845e-14      -5.238491542985e-13       0.000000000000e+00       1.132830547490e-11       3.538427793074e-12      -7.703885886518e-15 
   62       3.899036370861e-10       2.208446953331e-14      -5.725245897022e-13       0.000000000000e+00       1.080924924924e-11       3.416229191344e-12      -7.661507409293e-15 
   63       3.964272877805e-10       2.320625797786e-14      -6.229945554222e-13       0.000000000000e+00       1.031855178985e-11       3.299837665431e-12      -7.621688857812e-15 
   64       4.029805789558e-10       2.435989883565e-14      -6.752573473947e-13       0.000000000000e+00       9.855423322276e-12       3.189168282119e-12      -7.583543637285e-15 
   65       4.095631403110e-10       2.554528122942e-14      -7.293095961639e-13       0.000000000000e+00       9.418433670145e-12       3.083998870238e-12      -7.545974573094e-15 
   66       4.161738096084e-10       2.676225280539e-14      -7.851462617514e-13       0.000000000000e+00       9.005478487652e-12       2.983962532518e-12      -7.507663806539e-15 
   67       4.228105792527e-10       2.801061875746e-14      -8.427606285262e-13       0.000000000000e+00       8.613745492017e-12       2.888540157454e-12      -7.467062690584e-15 
   68       4.294714184527e-10       2.929014824102e-14      -9.021443618188e-13       0.000000000000e+00       8.240420014246e-12       2.797201230695e-12      -7.422814012629e-15 
   69       4.361570525686e-10       3.060059730466e-14      -9.632877025523e-13       0.000000000000e+00       7.885043143754e-12       2.709876139528e-12      -7.375140595327e-15 
   70       4.428686535536e-10       3.194168887346e-14      -1.026179303014e-12       0.000000000000e+00       7.547572939872e-12       2.626566557411e-12      -7.324721203901e-15 
   71       4.496069837283e-10       3.331310499789e-14      -1.090806165111e-12       0.000000000000e+00       7.227672798294e-12       2.547201982989e-12      -7.272284049978e-15 
   72       4.563723647536e-10       3.471448606706e-14      -1.157153636823e-12       0.000000000000e+00       6.924696591934e-12       2.471636044776e-12      -7.218607744293e-15 
   73       4.631646466031e-10       3.614543002187e-14      -1.225205408646e-12       0.000000000000e+00       6.637673811777e-12       2.399642805847e-12      -7.164522249385e-15 
   74       4.699831765351e-10       3.760549156834e-14      -1.294943510046e-12       0.000000000000e+00       6.365294707744e-12       2.330913068521e-12      -7.110909832309e-15 
   75       4.768267680655e-10       3.909418139074e-14      -1.366348305904e-12       0.000000000000e+00       6.105895429541e-12       2.265050679050e-12      -7.058706017331e-15 
   76       4.836941745816e-10       4.061097347812e-14      -1.439398866230e-12       0.000000000000e+00       5.857846441157e-12       2.201667754302e-12      -7.008655276794e-15 
   77       4.905856784783e-10       4.215533038531e-14      -1.514074160980e-12       0.000000000000e+00       5.620832382358e-12       2.140698578124e-12      -6.960524564222e-15 
   78       4.975017367843e-10       4.372668117034e-14      -1.590352077681e-12       0.000000000000e+00       5.394779684374e-12       2.082136497801e-12      -6.913747429743e-15 
   79       5.044424818836e-10       4.532441307951e-14      -1.668209071531e-12       0.000000000000e+00       5.179467518021e-12       2.025938440211e-12      -6.867652548282e-15 
   80       5.114077008361e-10       4.694787092701e-14      -1.747620169504e-12       0.000000000000e+00       4.974521204014e-12       1.972023244992e-12      -6.821459642975e-15 
   81       5.183968146981e-10       4.859635647446e-14      -1.828558974454e-12       0.000000000000e+00       4.779405623273e-12       1.920269997706e-12      -6.774275408578e-15 
   82       5.254088578428e-10       5.026912781055e-14      -1.910997669214e-12       0.000000000000e+00       4.593418627234e-12       1.870516362998e-12      -6.725089434875e-15 
   83       5.324424572809e-10       5.196539873060e-14      -1.994907020701e-12       0.000000000000e+00       4.415684448159e-12       1.822556917759e-12      -6.672770130090e-15 
   84       5.394963061998e-10       5.368435255755e-14      -2.080256356839e-12       0.000000000000e+00       4.245351998947e-12       1.776193775515e-12      -6.616379675113e-15 
   85       5.465707200756e-10       5.542518759628e-14      -2.167013483938e-12       0.000000000000e+00       4.082241978540e-12       1.731401753488e-12      -6.556187807128e-15 
   86       5.536663018164e-10       5.718707811221e-14      -2.255144763074e-12       0.000000000000e+00       3.926295459797e-12       1.688187657979e-12      -6.492819407019e-15 
   87       5.607834582889e-10       5.896916018776e-14      -2.344615139649e-12       0.000000000000e+00       3.777375438284e-12       1.646539651266e-12      -6.426951677684e-15 
   88       5.679223879454e-10       6.077053134470e-14      -2.435388147034e-12       0.000000000000e+00       3.635263686106e-12       1.606426463613e-12      -6.359315429301e-15 
   89       5.750830684503e-10       6.259025016643e-14      -2.527425910215e-12       0.000000000000e+00       3.499657605736e-12       1.567796605275e-12      -6.290696364603e-15 
   90       5.822652443070e-10       6.442733592030e-14      -2.620689149442e-12       0.000000000000e+00       3.370167083848e-12       1.530577578502e-12      -6.221936364150e-15 
   91       5.894684144844e-10       6.628076817991e-14      -2.715137183872e-12       0.000000000000e+00       3.246311345143e-12       1.494675089553e-12      -6.153934771602e-15 
   92       5.966918200440e-10       6.814948644742e-14      -2.810727935215e-12       0.000000000000e+00       3.127515806180e-12       1.459972260695e-12      -6.087649678992e-15 
   93       6.039347380352e-10       7.003240814045e-14      -2.907418217539e-12       0.000000000000e+00       3.013239631272e-12       1.426358304198e-12      -6.023920913179e-15 
   94       6.111974406214e-10       7.192848646756e-14      -3.005164648610e-12       0.000000000000e+00       2.903387178870e-12       1.393821189025e-12      -5.962905749604e-15 
   95       6.184803580008e-10       7.383666059946e-14      -3.103922882997e-12       0.000000000000e+00       2.797952907730e-12       1.362367519150e-12      -5.904560311285e-15 
   96       6.257837769311e-10       7.575583795605e-14      -3.203647345597e-12       0.000000000000e+00       2.696894854689e-12       1.331993934956e-12      -5.848809159037e-15 
   97       6.331078325599e-10       7.768489408081e-14      -3.304291239215e-12       0.000000000000e+00       2.600133282629e-12       1.302686729662e-12      -5.795544129262e-15 
   98       6.404525002561e-10       7.962267251523e-14      -3.405806552132e-12       0.000000000000e+00       2.507549328423e-12       1.274421465756e-12      -5.744623171748e-15 
   99       6.478175874403e-10       8.156798467318e-14      -3.508144065684e-12       0.000000000000e+00       2.418983650900e-12       1.247162591413e-12      -5.695869187459e-15 
  100       6.552027254156e-10       8.351960971530e-14      -3.611253361835e-12       0.000000000000e+00       2.334235078795e-12       1.220863056925e-12      -5.649068866330e-15 
  101       6.626073611988e-10       8.547629442342e-14      -3.715082830747e-12       0.000000000000e+00       2.253059258708e-12       1.195463931130e-12      -5.603971525060e-15 
  102       6.700307493507e-10       8.743675307491e-14      -3.819579678361e-12       0.000000000000e+00       2.175167303060e-12       1.170894017834e-12      -5.560287944908e-15 
  103       6.774719438074e-10       8.939966731713e-14      -3.924689933965e-12       0.000000000000e+00       2.100224438045e-12       1.147069472242e-12      -5.517689209484e-15 
  104       6.849300535387e-10       9.136371259663e-14      -4.030358829576e-12       0.000000000000e+00       2.027921157020e-12       1.123912565488e-12      -5.475864390813e-15 
  105       6.924050664512e-10       9.332764178347e-14      -4.136531980129e-12       0.000000000000e+00       1.958200539427e-12       1.101411691259e-12      -5.434704985496e-15 
  106       6.998971220711e-10       9.529021266176e-14      -4.243154377576e-12       0.000000000000e+00       1.891059261699e-12       1.079568787839e-12      -5.394143342488e-15 
  107       7.074062524486e-10       9.725016254778e-14      -4.350170044839e-12       0.000000000000e+00       1.826477285379e-12       1.058380742789e-12      -5.354095530365e-15 
