# Matter power spectrum P(k) at redshift z=0
# for k=1.29038e-05 to 1.03428 h/Mpc,
# number of wavenumbers equal to 611
#    1:k (h/Mpc)              2:P (Mpc/h)^3        
       1.290383793673e-05       2.736397254340e+01 
       2.780351476989e-05       5.744327151535e+01 
       4.277616329453e-05       8.709329439203e+01 
       5.787573885601e-05       1.166314192908e+02 
       7.315742156422e-05       1.462561525248e+02 
       8.867827373932e-05       1.761268587734e+02 
       1.044979256582e-04       2.063872524593e+02 
       1.206793014406e-04       2.371755894560e+02 
       1.372893969600e-04       2.686302227197e+02 
       1.544001216363e-04       3.008935024795e+02 
       1.720892156948e-04       3.341146132513e+02 
       1.904412537525e-04       3.684521300904e+02 
       2.095487440856e-04       4.040765063508e+02 
       2.295133301988e-04       4.411723873139e+02 
       2.504470967544e-04       4.799410907740e+02 
       2.724739746945e-04       5.206030172454e+02 
       2.957312294511e-04       5.634002380515e+02 
       3.203710001656e-04       6.085989179964e+02 
       3.465618352999e-04       6.564917416353e+02 
       3.744901393379e-04       7.073999793343e+02 
       4.043614051440e-04       7.616750923780e+02 
       4.364010566095e-04       8.196995866360e+02 
       4.708546680861e-04       8.818861949303e+02 
       5.079872659414e-04       9.486761210372e+02 
       5.480813639195e-04       1.020533929265e+03 
       5.914333556345e-04       1.097940031987e+03 
       6.383479099754e-04       1.181379785438e+03 
       6.891301192070e-04       1.271327996847e+03 
       7.440753632820e-04       1.368230401303e+03 
       8.034571885160e-04       1.472481564053e+03 
       8.675139297132e-04       1.584401473336e+03 
       9.364352562994e-04       1.704212640431e+03 
       1.010350169681e-03       1.832020453559e+03 
       1.089318076979e-03       1.967800212423e+03 
       1.173324312122e-03       2.111391769494e+03 
       1.262280869507e-03       2.262504811444e+03 
       1.356032289547e-03       2.420731898023e+03 
       1.454365814423e-03       2.585570203925e+03 
       1.557024343222e-03       2.756446151780e+03 
       1.663720492988e-03       2.932732465290e+03 
       1.774150214712e-03       3.113764752690e+03 
       1.888004808422e-03       3.298946016759e+03 
       2.004980673416e-03       3.487663822056e+03 
       2.124786583875e-03       3.679339065128e+03 
       2.247148618615e-03       3.873432138974e+03 
       2.371813075858e-03       4.069448818462e+03 
       2.498547787743e-03       4.266941039738e+03 
       2.627142249546e-03       4.465505032872e+03 
       2.757406930649e-03       4.664781643086e+03 
       2.889172065870e-03       4.864451137104e+03 
       3.022286154895e-03       5.064230583737e+03 
       3.156614334128e-03       5.263871557257e+03 
       3.292036733288e-03       5.463154066809e+03 
       3.428446889058e-03       5.661886592519e+03 
       3.565750258677e-03       5.859899526715e+03 
       3.703862855762e-03       6.057045462144e+03 
       3.842710016716e-03       6.253194935267e+03 
       3.982225297089e-03       6.448234839587e+03 
       4.122349491861e-03       6.642065594101e+03 
       4.263029770578e-03       6.834601291498e+03 
       4.404218916893e-03       7.025765857842e+03 
       4.545874661714e-03       7.215493836810e+03 
       4.687959099445e-03       7.403726849480e+03 
       4.830438177459e-03       7.590416365389e+03 
       4.973281249787e-03       7.775517204708e+03 
       5.116460686903e-03       7.958993147281e+03 
       5.259951534393e-03       8.140811446551e+03 
       5.403731214159e-03       8.320943364388e+03 
       5.547779262596e-03       8.499367373694e+03 
       5.692077100897e-03       8.676060691708e+03 
       5.836607833272e-03       8.851012672540e+03 
       5.981356069449e-03       9.024250732550e+03 
       6.126307768291e-03       9.195669535467e+03 
       6.271450099793e-03       9.365302656750e+03 
       6.416771323129e-03       9.533155483916e+03 
       6.562260678673e-03       9.699218226833e+03 
       6.707908292262e-03       9.863310841332e+03 
       6.853705090155e-03       1.002575454786e+04 
       6.999642723382e-03       1.018642976888e+04 
       7.145713500322e-03       1.034529422122e+04 
       7.291910326523e-03       1.050235869832e+04 
       7.438226650903e-03       1.065762580138e+04 
       7.584656417574e-03       1.081102796491e+04 
       7.731194022632e-03       1.096276338826e+04 
       7.877834275348e-03       1.111268557041e+04 
       8.024572363250e-03       1.126079383842e+04 
       8.171403820671e-03       1.140711314830e+04 
       8.318324500365e-03       1.155165612321e+04 
       8.465330547865e-03       1.169454074343e+04 
       8.612418378281e-03       1.183570788336e+04 
       8.759584655280e-03       1.197502253461e+04 
       8.906826272015e-03       1.211248971729e+04 
       9.054140333804e-03       1.224841571607e+04 
       9.201524142373e-03       1.238258945672e+04 
       9.348975181509e-03       1.251517004314e+04 
       9.496491103980e-03       1.264585482148e+04 
       9.644069719597e-03       1.277512941890e+04 
       9.791708984304e-03       1.290253496504e+04 
       9.939406990199e-03       1.302818160447e+04 
       1.008716195639e-02       1.315227730823e+04 
       1.023497222064e-02       1.327455085958e+04 
       1.038283623163e-02       1.339555954560e+04 
       1.053075254198e-02       1.351454233555e+04 
       1.067871980169e-02       1.363224689139e+04 
       1.082673675219e-02       1.374816871875e+04 
       1.097480222086e-02       1.386254219021e+04 
       1.112291511597e-02       1.397529427721e+04 
       1.127107442197e-02       1.408648347863e+04 
       1.141927919521e-02       1.419599844949e+04 
       1.156752855995e-02       1.430439541672e+04 
       1.171582170470e-02       1.441085229588e+04 
       1.186415787878e-02       1.451579003072e+04 
       1.201253638921e-02       1.461921587743e+04 
       1.216095659778e-02       1.472111069653e+04 
       1.230941791836e-02       1.482149822629e+04 
       1.245791981439e-02       1.492041362952e+04 
       1.260646179658e-02       1.501782587266e+04 
       1.275504342077e-02       1.511334323375e+04 
       1.290366428592e-02       1.520770661512e+04 
       1.305232403228e-02       1.530128468310e+04 
       1.320102233967e-02       1.539248806501e+04 
       1.334975892591e-02       1.548302736626e+04 
       1.349853354535e-02       1.557174703858e+04 
       1.364734598748e-02       1.565870974020e+04 
       1.379619607569e-02       1.574505841959e+04 
       1.394508366612e-02       1.582954126301e+04 
       1.409400864651e-02       1.591273190081e+04 
       1.424297093528e-02       1.599396792644e+04 
       1.439197048055e-02       1.607448047521e+04 
       1.454100725930e-02       1.615389523585e+04 
       1.469008127656e-02       1.623128422626e+04 
       1.483919256473e-02       1.630766030154e+04 
       1.498834118286e-02       1.638265629427e+04 
       1.513752721608e-02       1.645651732452e+04 
       1.528675077499e-02       1.652937717825e+04 
       1.543601199519e-02       1.660008871662e+04 
       1.558531103678e-02       1.667051209114e+04 
       1.573464808395e-02       1.673906273525e+04 
       1.588402334460e-02       1.680651786349e+04 
       1.603343704998e-02       1.687221842941e+04 
       1.618288945441e-02       1.693746459017e+04 
       1.633238083495e-02       1.700118429635e+04 
       1.648191149124e-02       1.706311562950e+04 
       1.663148174523e-02       1.712484625621e+04 
       1.678109194102e-02       1.718456301870e+04 
       1.693074244473e-02       1.724323740670e+04 
       1.708043364434e-02       1.730131134072e+04 
       1.723016594966e-02       1.735786091381e+04 
       1.737993979219e-02       1.741281790475e+04 
       1.752975562511e-02       1.746706740636e+04 
       1.767961392328e-02       1.752028375496e+04 
       1.782951518323e-02       1.757215690758e+04 
       1.797945992314e-02       1.762259597338e+04 
       1.812944868297e-02       1.767265206513e+04 
       1.827948202448e-02       1.772090498927e+04 
       1.842956053131e-02       1.776872036989e+04 
       1.857968480912e-02       1.781512808862e+04 
       1.872985548570e-02       1.786004303178e+04 
       1.888007321114e-02       1.790459525926e+04 
       1.903033865797e-02       1.794779387438e+04 
       1.918065252136e-02       1.798990773751e+04 
       1.933101551933e-02       1.803070381771e+04 
       1.948142839295e-02       1.807118456338e+04 
       1.963189190662e-02       1.811027660927e+04 
       1.978240684828e-02       1.814834922662e+04 
       1.993297402974e-02       1.818531315006e+04 
       2.008359428691e-02       1.822101638073e+04 
       2.023426848016e-02       1.825609661597e+04 
       2.038499749465e-02       1.829040804610e+04 
       2.053578224064e-02       1.832333519705e+04 
       2.068662365387e-02       1.835549573586e+04 
       2.083752269596e-02       1.838700374647e+04 
       2.098848035477e-02       1.841729890819e+04 
       2.113949764487e-02       1.844649956269e+04 
       2.129057560790e-02       1.847523617260e+04 
       2.144171531310e-02       1.850236129232e+04 
       2.159291785773e-02       1.852903706400e+04 
       2.174418436758e-02       1.855478814033e+04 
       2.189551599747e-02       1.857957241921e+04 
       2.204691393176e-02       1.860371951313e+04 
       2.219837938494e-02       1.862703664504e+04 
       2.234991360215e-02       1.864913210387e+04 
       2.250151785980e-02       1.867058219873e+04 
       2.265319346613e-02       1.869091827437e+04 
       2.280494176190e-02       1.871057941343e+04 
       2.295676412097e-02       1.872953436364e+04 
       2.310866195102e-02       1.874757195271e+04 
       2.326063669421e-02       1.876499826397e+04 
       2.341268982790e-02       1.878156523488e+04 
       2.356482286540e-02       1.879689183810e+04 
       2.371703735670e-02       1.881178637290e+04 
       2.386933488927e-02       1.882621215711e+04 
       2.402171708888e-02       1.883957809188e+04 
       2.417418562041e-02       1.885213493867e+04 
       2.432674218873e-02       1.886385999416e+04 
       2.447938853955e-02       1.887504745551e+04 
       2.463212646037e-02       1.888539979860e+04 
       2.478495778142e-02       1.889499114787e+04 
       2.493788437659e-02       1.890391589074e+04 
       2.509090816448e-02       1.891207947059e+04 
       2.524403110939e-02       1.891960176830e+04 
       2.539725522242e-02       1.892643181248e+04 
       2.555058256251e-02       1.893247240866e+04 
       2.570401523762e-02       1.893786113953e+04 
       2.585755540588e-02       1.894260243198e+04 
       2.601120527676e-02       1.894670351886e+04 
       2.616496711235e-02       1.895016138980e+04 
       2.631884322857e-02       1.895289581756e+04 
       2.647283599657e-02       1.895486248521e+04 
       2.662694784399e-02       1.895636367271e+04 
       2.678118125641e-02       1.895740103516e+04 
       2.693553877877e-02       1.895763204920e+04 
       2.709002301687e-02       1.895712369749e+04 
       2.724463663887e-02       1.895617026645e+04 
       2.739938237687e-02       1.895472385426e+04 
       2.755426302858e-02       1.895243050910e+04 
       2.770928145892e-02       1.894969932078e+04 
       2.786444060183e-02       1.894637850564e+04 
       2.801974346199e-02       1.894249653190e+04 
       2.817519311672e-02       1.893799634687e+04 
       2.833079271783e-02       1.893299090943e+04 
       2.848654549360e-02       1.892743529148e+04 
       2.864245475083e-02       1.892131503773e+04 
       2.879852387691e-02       1.891468042831e+04 
       2.895475634198e-02       1.890753352567e+04 
       2.911115570116e-02       1.889982711526e+04 
       2.926772559688e-02       1.889162993738e+04 
       2.942446976123e-02       1.888289086252e+04 
       2.958139201844e-02       1.887383497526e+04 
       2.973849628743e-02       1.886396967738e+04 
       2.989578658442e-02       1.885372431205e+04 
       3.005326702567e-02       1.884302393415e+04 
       3.021094183031e-02       1.883186209180e+04 
       3.036881532319e-02       1.882033963921e+04 
       3.052689193797e-02       1.880812215629e+04 
       3.068517622016e-02       1.879564085098e+04 
       3.084367283043e-02       1.878251180914e+04 
       3.100238654787e-02       1.876907216345e+04 
       3.116132227349e-02       1.875512617455e+04 
       3.132048503384e-02       1.874096257279e+04 
       3.147987998462e-02       1.872600601880e+04 
       3.163951241466e-02       1.871082648660e+04 
       3.179938774977e-02       1.869523591898e+04 
       3.195951155702e-02       1.867920637276e+04 
       3.211988954889e-02       1.866278270377e+04 
       3.228052758784e-02       1.864585088206e+04 
       3.244143169084e-02       1.862862243414e+04 
       3.260260803421e-02       1.861102827057e+04 
       3.276406295859e-02       1.859300272000e+04 
       3.292580297410e-02       1.857460986581e+04 
       3.308783476570e-02       1.855582955296e+04 
       3.325016519878e-02       1.853666955102e+04 
       3.341280132499e-02       1.851718937593e+04 
       3.357575038818e-02       1.849731354584e+04 
       3.373901983080e-02       1.847707023855e+04 
       3.390261730028e-02       1.845650688937e+04 
       3.406655065595e-02       1.843554998902e+04 
       3.423082797602e-02       1.841434450340e+04 
       3.439545756498e-02       1.839269867956e+04 
       3.456044796126e-02       1.837080426285e+04 
       3.472580794522e-02       1.834849323050e+04 
       3.489154654748e-02       1.832592368637e+04 
       3.505767305760e-02       1.830299756481e+04 
       3.522419703316e-02       1.827971016042e+04 
       3.539112830919e-02       1.825622998503e+04 
       3.555847700807e-02       1.823234833717e+04 
       3.572625354983e-02       1.820825790486e+04 
       3.589446866288e-02       1.818387803231e+04 
       3.606313339533e-02       1.815899992526e+04 
       3.623225912673e-02       1.813396732497e+04 
       3.640185758036e-02       1.810867840002e+04 
       3.657194083615e-02       1.808311518658e+04 
       3.674252134412e-02       1.805722846629e+04 
       3.691361193855e-02       1.803105172746e+04 
       3.708522585272e-02       1.800460512806e+04 
       3.725737673446e-02       1.797789435825e+04 
       3.743007866238e-02       1.795089145415e+04 
       3.760334616297e-02       1.792365601598e+04 
       3.777719422844e-02       1.789613180869e+04 
       3.795163833560e-02       1.786836248473e+04 
       3.812669446556e-02       1.784037704379e+04 
       3.830237912449e-02       1.781209130497e+04 
       3.847870936550e-02       1.778355749194e+04 
       3.865570281156e-02       1.775480135025e+04 
       3.883337767972e-02       1.772577536170e+04 
       3.901175280658e-02       1.769646879308e+04 
       3.919084767511e-02       1.766694436213e+04 
       3.937068244298e-02       1.763725124346e+04 
       3.955127797239e-02       1.760725010505e+04 
       3.973265586163e-02       1.757697657750e+04 
       3.991483847834e-02       1.754658070718e+04 
       4.009784899468e-02       1.751585028134e+04 
       4.028171142459e-02       1.748490283263e+04 
       4.046645066311e-02       1.745374014969e+04 
       4.065209252809e-02       1.742237428020e+04 
       4.083866380431e-02       1.739071927894e+04 
       4.102619229038e-02       1.735885763046e+04 
       4.121470684832e-02       1.732679379407e+04 
       4.140423745636e-02       1.729446425381e+04 
       4.159481526493e-02       1.726194347696e+04 
       4.178647265622e-02       1.722917309520e+04 
       4.197924330757e-02       1.719620127094e+04 
       4.217316225891e-02       1.716295736192e+04 
       4.236826598468e-02       1.712951074576e+04 
       4.256459247045e-02       1.709582340479e+04 
       4.276218129479e-02       1.706195202833e+04 
       4.296107371664e-02       1.702777037177e+04 
       4.316131276876e-02       1.699339789720e+04 
       4.336294335766e-02       1.695884625731e+04 
       4.356601237071e-02       1.692398183908e+04 
       4.377056879087e-02       1.688890533321e+04 
       4.397666381985e-02       1.685360135052e+04 
       4.418435101030e-02       1.681802843628e+04 
       4.439368640801e-02       1.678224419597e+04 
       4.460472870487e-02       1.674624745877e+04 
       4.481753940368e-02       1.670993258961e+04 
       4.503218299584e-02       1.667339015343e+04 
       4.524872715323e-02       1.663660050488e+04 
       4.546724293554e-02       1.659950586956e+04 
       4.568780501468e-02       1.656220082871e+04 
       4.591049191784e-02       1.652458959204e+04 
       4.613538629115e-02       1.648672656523e+04 
       4.636257518609e-02       1.644863498456e+04 
       4.659215037087e-02       1.641014046806e+04 
       4.682420866957e-02       1.637142079731e+04 
       4.705885233200e-02       1.633238293003e+04 
       4.729618943752e-02       1.629302291097e+04 
       4.753633433675e-02       1.625337354985e+04 
       4.777940813538e-02       1.621337681564e+04 
       4.802553922495e-02       1.617305424862e+04 
       4.827486386606e-02       1.613239513649e+04 
       4.852752683039e-02       1.609135003773e+04 
       4.878368210858e-02       1.604993683377e+04 
       4.904349369213e-02       1.600818669134e+04 
       4.930713643881e-02       1.596600119837e+04 
       4.957479703216e-02       1.592347688878e+04 
       4.984667504763e-02       1.588042601720e+04 
       5.012298413945e-02       1.583697086655e+04 
       5.040395336508e-02       1.579301234302e+04 
       5.068982866605e-02       1.574861203029e+04 
       5.098087452793e-02       1.570374267300e+04 
       5.127737584527e-02       1.565831052143e+04 
       5.157964002224e-02       1.561224871716e+04 
       5.188799934478e-02       1.556577415483e+04 
       5.220281366673e-02       1.551874850359e+04 
       5.252447345993e-02       1.547078683721e+04 
       5.285340328778e-02       1.542230337415e+04 
       5.319006577319e-02       1.537306775096e+04 
       5.353496614539e-02       1.532317147589e+04 
       5.388865746756e-02       1.527254855538e+04 
       5.425174666755e-02       1.522084454366e+04 
       5.462490152007e-02       1.516842656673e+04 
       5.500885876049e-02       1.511491224268e+04 
       5.540443355004e-02       1.506039401219e+04 
       5.581253056170e-02       1.500476880036e+04 
       5.623415701847e-02       1.494797424686e+04 
       5.667043809379e-02       1.488998152034e+04 
       5.712263518296e-02       1.483042668278e+04 
       5.759216768006e-02       1.476949400446e+04 
       5.808063905423e-02       1.470697749900e+04 
       5.858986822306e-02       1.464256064460e+04 
       5.912192747972e-02       1.457633287195e+04 
       5.967918856090e-02       1.450781286982e+04 
       6.026437886153e-02       1.443699140933e+04 
       6.088065032835e-02       1.436348005943e+04 
       6.153166421704e-02       1.428710330716e+04 
       6.222169568290e-02       1.420746684902e+04 
       6.295576307604e-02       1.412386606602e+04 
       6.373978774615e-02       1.403611304364e+04 
       6.458079091300e-02       1.394345002989e+04 
       6.548713423407e-02       1.384511539817e+04 
       6.646880906594e-02       1.374022408428e+04 
       6.753777401666e-02       1.362758311330e+04 
       6.870832735675e-02       1.350595759201e+04 
       6.999747339265e-02       1.337303463364e+04 
       7.142518930814e-02       1.322684160644e+04 
       7.301440796090e-02       1.306448887786e+04 
       7.479039658586e-02       1.288225928268e+04 
       7.677906321274e-02       1.267631316550e+04 
       7.900369452799e-02       1.244225911384e+04 
       8.148000934199e-02       1.217526962010e+04 
