# dimensionless total [l(l+1)/2pi] C_l's
# for l=2 to 3000, i.e. number of multipoles equal to 2999
#
# -> if you prefer output in CAMB/HealPix/LensPix units/order, set 'format' to 'camb' in input file
# -> if you don't want to see such a header, set 'headers' to 'no' in input file
# -> for CMB lensing (phi), these are C_l^phi-phi for the lensing potential.
#    Remember the conversion factors:
#    C_l^dd (deflection) = l(l+1) C_l^phi-phi
#    C_l^gg (shear/convergence) = 1/4 (l(l+1))^2 C_l^phi-phi
#
# 1:l     2:TT                     3:EE                     4:TE                     5:BB                     6:phiphi                 7:TPhi                   8:Ephi               
    2       1.433670299875e-10       5.153778015710e-15       4.101546075726e-13       0.000000000000e+00       8.724264155118e-09       4.650859232709e-10      -2.098723854879e-12 
    3       1.357822598764e-10       5.896442129005e-15       4.396753914179e-13       0.000000000000e+00       5.403326074273e-09       3.305803778133e-10      -1.481113886313e-12 
    4       1.286335666602e-10       4.518975811569e-15       3.937027449810e-13       0.000000000000e+00       3.762054884632e-09       2.503920671402e-10      -8.779531946632e-13 
    5       1.233599432488e-10       2.665818404782e-15       3.210873371473e-13       0.000000000000e+00       2.807302612441e-09       1.977241457151e-10      -4.118300705968e-13 
    6       1.198271640248e-10       1.363007552054e-15       2.475951678570e-13       0.000000000000e+00       2.191401028831e-09       1.608188293504e-10      -1.051468354688e-13 
    7       1.176131502317e-10       7.443573072700e-16       1.871447120704e-13       0.000000000000e+00       1.767788039600e-09       1.337846523262e-10       5.818975396417e-14 
    8       1.163882987944e-10       5.153110625832e-16       1.444858112293e-13       0.000000000000e+00       1.461565934241e-09       1.133793827197e-10       1.131960643732e-13 
    9       1.159240946790e-10       4.107869876399e-16       1.189443197375e-13       0.000000000000e+00       1.231238605927e-09       9.759224142824e-11       1.004488150245e-13 
   10       1.159626214972e-10       3.329686250211e-16       1.071928552430e-13       0.000000000000e+00       1.052838954165e-09       8.503856522767e-11       5.699671435085e-14 
   11       1.164170461424e-10       2.800429814730e-16       1.051057753655e-13       0.000000000000e+00       8.871214870688e-10       7.508983925254e-11       1.125260592023e-14 
   12       1.172025841550e-10       2.582186165698e-16       1.088226698366e-13       0.000000000000e+00       7.752215317181e-10       6.646682983888e-11      -2.189285338262e-14 
   13       1.182042403619e-10       2.581122665918e-16       1.154649725036e-13       0.000000000000e+00       6.833494320663e-10       5.933607505603e-11      -3.657494976224e-14 
   14       1.194508429497e-10       2.701484670002e-16       1.232638141008e-13       0.000000000000e+00       6.068935503161e-10       5.318674512692e-11      -3.557600027028e-14 
   15       1.208132951520e-10       2.949767342976e-16       1.314373577236e-13       0.000000000000e+00       5.425290930034e-10       4.796833327444e-11      -2.528524423864e-14 
   16       1.223596477887e-10       3.382270853922e-16       1.398795853974e-13       0.000000000000e+00       4.877964846097e-10       4.347640540191e-11      -1.294357687120e-14 
   17       1.240076719111e-10       4.025348523390e-16       1.488554478417e-13       0.000000000000e+00       4.408382369147e-10       3.961177052826e-11      -3.866500165263e-15 
   18       1.257463616856e-10       4.862755533933e-16       1.586512718365e-13       0.000000000000e+00       4.000748125771e-10       3.623339483093e-11      -5.219658354850e-16 
   19       1.275985832196e-10       5.884377026532e-16       1.692818070860e-13       0.000000000000e+00       3.648619732204e-10       3.327871149283e-11      -2.242008149898e-15 
   20       1.295261067708e-10       7.078498045218e-16       1.805688602325e-13       0.000000000000e+00       3.338443247824e-10       3.064568326471e-11      -6.857147555137e-15 
   21       1.315284681072e-10       8.441197970679e-16       1.921503417314e-13       0.000000000000e+00       3.065359064722e-10       2.830939774964e-11      -1.204743953216e-14 
   22       1.335859497074e-10       9.969434000620e-16       2.035243653835e-13       0.000000000000e+00       2.822847031489e-10       2.622969456100e-11      -1.535463800021e-14 
   23       1.357047445104e-10       1.166658560810e-15       2.142637168001e-13       0.000000000000e+00       2.607582211878e-10       2.436659218519e-11      -1.618448507019e-14 
   24       1.378769744759e-10       1.354026180988e-15       2.239825266115e-13       0.000000000000e+00       2.414598193055e-10       2.266094546777e-11      -1.477365725368e-14 
   25       1.401027939623e-10       1.561148037332e-15       2.326267131805e-13       0.000000000000e+00       2.241630843461e-10       2.110914626880e-11      -1.210355884131e-14 
   26       1.423705773508e-10       1.790559942849e-15       2.402873411559e-13       0.000000000000e+00       2.085555175983e-10       1.971024483937e-11      -9.494161635946e-15 
   27       1.446868323646e-10       2.043790661838e-15       2.471039579262e-13       0.000000000000e+00       1.944502347752e-10       1.845487658876e-11      -7.692306232391e-15 
   28       1.470526406187e-10       2.322022622580e-15       2.532289758456e-13       0.000000000000e+00       1.816044168584e-10       1.732144205019e-11      -7.180397584263e-15 
   29       1.494725725059e-10       2.626327695100e-15       2.586430575575e-13       0.000000000000e+00       1.699526991182e-10       1.629854143930e-11      -7.727812870069e-15 
   30       1.519380829513e-10       2.957682635618e-15       2.632683628239e-13       0.000000000000e+00       1.593702598940e-10       1.536598298337e-11      -8.760318724766e-15 
   31       1.544296597418e-10       3.316982328174e-15       2.670028049734e-13       0.000000000000e+00       1.496416173868e-10       1.449579691636e-11      -9.642313784004e-15 
   32       1.569514817642e-10       3.705074848503e-15       2.696765851554e-13       0.000000000000e+00       1.407166731197e-10       1.368554550878e-11      -1.014813865261e-14 
   33       1.595070148876e-10       4.122724530756e-15       2.710752133831e-13       0.000000000000e+00       1.325324293025e-10       1.293597005663e-11      -1.016067094837e-14 
   34       1.620926268125e-10       4.570690875091e-15       2.710028078164e-13       0.000000000000e+00       1.249745098563e-10       1.224332915016e-11      -9.615360947483e-15 
   35       1.647112710375e-10       5.050063847759e-15       2.694724266000e-13       0.000000000000e+00       1.180042933458e-10       1.160499183147e-11      -8.730791516234e-15 
   36       1.673617962852e-10       5.562043606875e-15       2.665845876818e-13       0.000000000000e+00       1.115659231396e-10       1.101489035262e-11      -7.866021005125e-15 
   37       1.700387218050e-10       6.107785624941e-15       2.624422886109e-13       0.000000000000e+00       1.055756968279e-10       1.046438195862e-11      -7.371121516483e-15 
   38       1.727471006425e-10       6.688168528605e-15       2.570221570286e-13       0.000000000000e+00       1.000181915963e-10       9.951953765008e-12      -7.262389024737e-15 
   39       1.754913646472e-10       7.303945015754e-15       2.502617475150e-13       0.000000000000e+00       9.487583925977e-11       9.476156278104e-12      -7.440905451804e-15 
   40       1.782706034692e-10       7.955798042410e-15       2.420933881632e-13       0.000000000000e+00       9.009968709901e-11       9.032684260732e-12      -7.776736645574e-15 
   41       1.810804181743e-10       8.644383776603e-15       2.324474461790e-13       0.000000000000e+00       8.562645938652e-11       8.615952725241e-12      -8.136250168987e-15 
   42       1.839206034307e-10       9.370488483121e-15       2.212646283975e-13       0.000000000000e+00       8.144300335546e-11       8.225044626718e-12      -8.479937468170e-15 
   43       1.867889889639e-10       1.013491486394e-14       2.084868271645e-13       0.000000000000e+00       7.753821438605e-11       7.859277361436e-12      -8.792813834301e-15 
   44       1.896788155376e-10       1.093843748791e-14       1.940534451167e-13       0.000000000000e+00       7.388369578112e-11       7.516420325477e-12      -9.057573207598e-15 
   45       1.925824874306e-10       1.178175702740e-14       1.779069731633e-13       0.000000000000e+00       7.044390100628e-11       7.193553553335e-12      -9.261548413069e-15 
   46       1.955051414914e-10       1.266534996964e-14       1.600122987333e-13       0.000000000000e+00       6.721341981339e-11       6.890244617444e-12      -9.420357340210e-15 
   47       1.984544317264e-10       1.358957158100e-14       1.403427471294e-13       0.000000000000e+00       6.418849778554e-11       6.606108642027e-12      -9.561120955820e-15 
   48       2.014365468926e-10       1.455469250322e-14       1.188748408695e-13       0.000000000000e+00       6.135579080049e-11       6.339840289021e-12      -9.716276001477e-15 
   49       2.044560371478e-10       1.556089479155e-14       9.558838668672e-14       0.000000000000e+00       5.869165194424e-11       6.089145282487e-12      -9.923862220539e-15 
   50       2.075155204565e-10       1.660835039361e-14       7.046339421195e-14       0.000000000000e+00       5.616925282575e-11       5.851418918812e-12      -1.021526678105e-14 
   51       2.106151100294e-10       1.769749089076e-14       4.346964415932e-14       0.000000000000e+00       5.378388070185e-11       5.626157583957e-12      -1.057386939317e-14 
   52       2.137525318233e-10       1.882880412664e-14       1.457443892793e-14       0.000000000000e+00       5.153327535745e-11       5.413083451050e-12      -1.096566836579e-14 
   53       2.169230564405e-10       2.000275808529e-14      -1.625453718801e-14       0.000000000000e+00       4.941005861399e-11       5.211422172530e-12      -1.135054647625e-14 
   54       2.201193201200e-10       2.121980080890e-14      -4.904928009616e-14       0.000000000000e+00       4.740138992083e-11       5.019869556829e-12      -1.168196794766e-14 
   55       2.233340053468e-10       2.248024436350e-14      -8.383552763362e-14       0.000000000000e+00       4.549288131167e-11       4.837005422365e-12      -1.191746269521e-14 
   56       2.265690725810e-10       2.378388316934e-14      -1.206130749934e-13       0.000000000000e+00       4.368227017945e-11       4.662731894098e-12      -1.205382322480e-14 
   57       2.298285083416e-10       2.513028071141e-14      -1.593706779953e-13       0.000000000000e+00       4.196853985341e-11       4.497134042308e-12      -1.210012063174e-14 
   58       2.331156003958e-10       2.651887268441e-14      -2.000914570698e-13       0.000000000000e+00       4.034778324916e-11       4.340048455324e-12      -1.206779810695e-14 
   59       2.364328701646e-10       2.794896239287e-14      -2.427527255752e-13       0.000000000000e+00       3.881302440927e-11       4.191047338705e-12      -1.197078819759e-14 
   60       2.397820051282e-10       2.941971615114e-14      -2.873258181134e-13       0.000000000000e+00       3.735404004392e-11       4.049422614407e-12      -1.182563006760e-14 
   61       2.431641768666e-10       3.093030523002e-14      -3.337837786404e-13       0.000000000000e+00       3.596019650170e-11       3.914394545521e-12      -1.164883130943e-14 
   62       2.465812315197e-10       3.248037933460e-14      -3.821268297499e-13       0.000000000000e+00       3.463010853339e-11       3.785828304057e-12      -1.144799611712e-14 
   63       2.500346478068e-10       3.406969172457e-14      -4.323623416053e-13       0.000000000000e+00       3.336384172864e-11       3.663650760179e-12      -1.122890475467e-14 
   64       2.535251207087e-10       3.569796209474e-14      -4.844975527748e-13       0.000000000000e+00       3.216000725295e-11       3.547631546640e-12      -1.099812252360e-14 
   65       2.570525061087e-10       3.736487662490e-14      -5.385396479331e-13       0.000000000000e+00       3.101567906567e-11       3.437374281983e-12      -1.076302959513e-14 
   66       2.606157654340e-10       3.907008802970e-14      -5.944958355629e-13       0.000000000000e+00       2.992631113785e-11       3.332307793743e-12      -1.053185084257e-14 
   67       2.642129102971e-10       4.081321560853e-14      -6.523734256569e-13       0.000000000000e+00       2.888565467028e-11       3.231677341648e-12      -1.031368567352e-14 
   68       2.678419258955e-10       4.259377214736e-14      -7.121743933213e-13       0.000000000000e+00       2.788742551908e-11       3.134743676374e-12      -1.011662974105e-14 
   69       2.715038822264e-10       4.441092731335e-14      -7.738776167476e-13       0.000000000000e+00       2.693088385050e-11       3.041446671882e-12      -9.941631442698e-15 
   70       2.752003567340e-10       4.626369618708e-14      -8.374531632372e-13       0.000000000000e+00       2.601624155243e-11       2.951861013276e-12      -9.787438458883e-15 
   71       2.789324815463e-10       4.815100638038e-14      -9.028674226674e-13       0.000000000000e+00       2.514297472226e-11       2.865996859796e-12      -9.652377102978e-15 
   72       2.827009131486e-10       5.007169621537e-14      -9.700830441685e-13       0.000000000000e+00       2.430978564716e-11       2.783796383500e-12      -9.534333352521e-15 
   73       2.865058020571e-10       5.202451290355e-14      -1.039058872799e-12       0.000000000000e+00       2.351456478438e-11       2.705130307958e-12      -9.430733880457e-15 
   74       2.903467624920e-10       5.400811072492e-14      -1.109749886224e-12       0.000000000000e+00       2.275435274154e-11       2.629794446939e-12      -9.338527086374e-15 
   75       2.942228420516e-10       5.602104920700e-14      -1.182107131387e-12       0.000000000000e+00       2.202530225688e-11       2.557506243100e-12      -9.254164127733e-15 
   76       2.981330413648e-10       5.806185953542e-14      -1.256081906807e-12       0.000000000000e+00       2.132363208518e-11       2.487977316031e-12      -9.174275994296e-15 
   77       3.020780494896e-10       6.012926179193e-14      -1.331639329920e-12       0.000000000000e+00       2.064877351700e-11       2.421154030974e-12      -9.097889204326e-15 
   78       3.060587713464e-10       6.222198420658e-14      -1.408747140249e-12       0.000000000000e+00       2.000073123401e-11       2.357014714282e-12      -9.024581566046e-15 
   79       3.100757870714e-10       6.433869802563e-14      -1.487371696633e-12       0.000000000000e+00       1.937912491216e-11       2.295495663945e-12      -8.953817358814e-15 
   80       3.141293329683e-10       6.647801708982e-14      -1.567478000957e-12       0.000000000000e+00       1.878317154172e-11       2.236489246920e-12      -8.884942637295e-15 
   81       3.182192824592e-10       6.863849741253e-14      -1.649029721891e-12       0.000000000000e+00       1.821166774747e-11       2.179841996446e-12      -8.817180535622e-15 
   82       3.223451270361e-10       7.081863675806e-14      -1.731989218622e-12       0.000000000000e+00       1.766297210872e-11       2.125352709373e-12      -8.749626571558e-15 
   83       3.265059572119e-10       7.301687421982e-14      -1.816317564597e-12       0.000000000000e+00       1.713498747954e-11       2.072770543478e-12      -8.681243950663e-15 
   84       3.307008711079e-10       7.523159896463e-14      -1.901973126057e-12       0.000000000000e+00       1.662566984261e-11       2.021856437760e-12      -8.611160803171e-15 
   85       3.349303197668e-10       7.746117905523e-14      -1.988906974916e-12       0.000000000000e+00       1.613469052307e-11       1.972583240176e-12      -8.539628797299e-15 
   86       3.391949509764e-10       7.970393665483e-14      -2.077066755424e-12       0.000000000000e+00       1.566201840055e-11       1.924965422633e-12      -8.467215573019e-15 
   87       3.434951897756e-10       8.195813902209e-14      -2.166398061195e-12       0.000000000000e+00       1.520740917536e-11       1.878997881763e-12      -8.394517312039e-15 
   88       3.478312265931e-10       8.422199824339e-14      -2.256844434665e-12       0.000000000000e+00       1.477039653792e-11       1.834655100499e-12      -8.322159116459e-15 
   89       3.522030053860e-10       8.649367096511e-14      -2.348347366531e-12       0.000000000000e+00       1.435028333815e-11       1.791890309646e-12      -8.250795387439e-15 
   90       3.566102117776e-10       8.877125812589e-14      -2.440846295201e-12       0.000000000000e+00       1.394613275490e-11       1.750634649456e-12      -8.181110203861e-15 
   91       3.610522611965e-10       9.105280468891e-14      -2.534278606240e-12       0.000000000000e+00       1.355675946540e-11       1.710796331205e-12      -8.113817700991e-15 
   92       3.655282870143e-10       9.333629937417e-14      -2.628579631818e-12       0.000000000000e+00       1.318072081467e-11       1.672259798764e-12      -8.049662449147e-15 
   93       3.700374271268e-10       9.561971987622e-14      -2.723683844487e-12       0.000000000000e+00       1.281665849676e-11       1.634914221404e-12      -7.989222556557e-15 
   94       3.745797587640e-10       9.790117687824e-14      -2.819528645090e-12       0.000000000000e+00       1.246440156283e-11       1.598745695298e-12      -7.932284280706e-15 
   95       3.791554829985e-10       1.001787913035e-13      -2.916051146180e-12       0.000000000000e+00       1.212401375066e-11       1.563757423492e-12      -7.878373620943e-15 
   96       3.837646311700e-10       1.024506511117e-13      -3.013187044085e-12       0.000000000000e+00       1.179545378880e-11       1.529941190298e-12      -7.826942915393e-15 
   97       3.884070571201e-10       1.047148116554e-13      -3.110870634745e-12       0.000000000000e+00       1.147857137746e-11       1.497276925493e-12      -7.777368511642e-15 
   98       3.930824294276e-10       1.069692960372e-13      -3.209034829556e-12       0.000000000000e+00       1.117310316932e-11       1.465732268523e-12      -7.728948437436e-15 
   99       3.977902236435e-10       1.092120954656e-13      -3.307611171212e-12       0.000000000000e+00       1.087866875042e-11       1.435262132696e-12      -7.680900071365e-15 
  100       4.025297145260e-10       1.114411696124e-13      -3.406529849545e-12       0.000000000000e+00       1.059476662093e-11       1.405808269385e-12      -7.632357813557e-15 
  101       4.072999682755e-10       1.136544469689e-13      -3.505719717366e-12       0.000000000000e+00       1.032077017605e-11       1.377298832225e-12      -7.582370756370e-15 
  102       4.120998347697e-10       1.158498252027e-13      -3.605108306307e-12       0.000000000000e+00       1.005592368684e-11       1.349647941315e-12      -7.529900355079e-15 
  103       4.169279397989e-10       1.180251715142e-13      -3.704621842663e-12       0.000000000000e+00       9.799338281049e-12       1.322755247413e-12      -7.473818098571e-15 
  104       4.217829714294e-10       1.201783698388e-13      -3.804185976599e-12       0.000000000000e+00       9.550193055242e-12       1.296529195007e-12      -7.413184502513e-15 
  105       4.266645998756e-10       1.223074689454e-13      -3.903728047841e-12       0.000000000000e+00       9.308378008193e-12       1.270961329093e-12      -7.348134027864e-15 
  106       4.315726679916e-10       1.244105551021e-13      -4.003175157004e-12       0.000000000000e+00       9.073930869881e-12       1.246061260431e-12      -7.279105915948e-15 
  107       4.365069037610e-10       1.264857078778e-13      -4.102453502953e-12       0.000000000000e+00       8.846837982194e-12       1.221833689775e-12      -7.206574293646e-15 
